3.0994415283203125e-06,475.0
0.08922100067138672,475.0
0.11850404739379883,474.0
0.1229100227355957,472.0
0.12731599807739258,472.0
0.15729904174804688,470.0
0.16134190559387207,470.0
0.16488909721374512,471.0
0.1697700023651123,472.0
0.20175480842590332,471.0
0.20508122444152832,472.0
0.20854496955871582,473.0
0.21233415603637695,475.0
0.21665215492248535,478.0
0.23982501029968262,478.0
0.24353313446044922,478.0
0.24794816970825195,479.0
0.27226805686950684,477.0
0.2759120464324951,478.0
0.28029298782348633,480.0
0.30472612380981445,485.0
0.3084449768066406,495.0
0.31207799911499023,510.0
0.316547155380249,530.0
0.3384971618652344,555.0
0.34200406074523926,583.0
0.34639501571655273,614.0
0.37106800079345703,644.0
0.37468910217285156,673.0
0.3790440559387207,696.0
0.40599703788757324,713.0
0.4096798896789551,723.0
0.4132668972015381,724.0
0.4176928997039795,719.0
0.4397718906402588,709.0
0.44344305992126465,692.0
0.44779396057128906,673.0
0.49254608154296875,651.0
0.49579286575317383,629.0
0.49909305572509766,608.0
0.5025179386138916,589.0
0.50583815574646,574.0
0.5113170146942139,561.0
0.5146729946136475,553.0
0.5192849636077881,547.0
0.5283210277557373,545.0
0.5572512149810791,543.0
0.5609009265899658,541.0
0.565241813659668,539.0
0.5897688865661621,539.0
0.5933189392089844,539.0
0.596790075302124,538.0
0.6235508918762207,535.0
0.6272220611572266,533.0
0.6316521167755127,531.0
0.6562349796295166,529.0
0.6597261428833008,527.0
0.6653649806976318,526.0
0.6884899139404297,525.0
0.692216157913208,524.0
0.6958169937133789,523.0
0.700239896774292,521.0
0.721513032913208,517.0
0.7250509262084961,516.0
0.7283170223236084,513.0
0.7560079097747803,509.0
0.7600460052490234,506.0
0.7636868953704834,503.0
0.7680368423461914,500.0
0.8606348037719727,496.0
0.8640530109405518,494.0
0.8677880764007568,491.0
0.9091870784759521,487.0
0.9125649929046631,484.0
0.9160010814666748,480.0
0.9193260669708252,477.0
0.9229509830474854,475.0
0.9267690181732178,473.0
0.9303910732269287,472.0
0.93402099609375,471.0
0.9375691413879395,471.0
0.9412720203399658,471.0
0.9450349807739258,470.0
0.9487948417663574,469.0
0.9525389671325684,469.0
0.9561538696289062,467.0
0.9596958160400391,467.0
0.964036226272583,467.0
0.9823019504547119,465.0
0.9859299659729004,465.0
0.9903130531311035,465.0
1.0141379833221436,465.0
1.0173168182373047,466.0
1.020759105682373,466.0
1.0251290798187256,466.0
1.0485482215881348,467.0
1.052191972732544,467.0
1.0565528869628906,467.0
1.09371018409729,467.0
1.0972988605499268,467.0
1.1009910106658936,467.0
1.105417013168335,467.0
1.1341891288757324,465.0
1.180408000946045,463.0
1.183819055557251,460.0
1.187242031097412,460.0
1.1905710697174072,459.0
1.193842887878418,459.0
1.1977851390838623,459.0
1.201570987701416,459.0
1.205390214920044,459.0
1.2247591018676758,456.0
1.2285609245300293,455.0
1.2324411869049072,455.0
1.235975980758667,456.0
1.2411248683929443,456.0
1.2598299980163574,457.0
1.263495922088623,458.0
1.2679171562194824,459.0
1.292330026626587,459.0
1.2959659099578857,458.0
1.3003311157226562,454.0
1.3241569995880127,452.0
1.3275940418243408,454.0
1.3319969177246094,455.0
1.3572349548339844,456.0
1.3611810207366943,457.0
1.366745948791504,459.0
1.3960158824920654,459.0
1.3998339176177979,459.0
1.403615951538086,459.0
1.407174825668335,456.0
1.4115431308746338,453.0
1.4417591094970703,453.0
1.4454360008239746,453.0
1.4893550872802734,455.0
1.4926140308380127,455.0
1.4960498809814453,459.0
1.4993081092834473,463.0
1.5026400089263916,471.0
1.5068891048431396,483.0
1.5106251239776611,500.0
1.514420986175537,522.0
1.5310018062591553,547.0
1.5346920490264893,574.0
1.53908109664917,598.0
1.5635430812835693,621.0
1.567004919052124,643.0
1.5713798999786377,663.0
1.596022129058838,676.0
1.5996711254119873,684.0
1.603322982788086,684.0
1.6076760292053223,677.0
1.6289968490600586,663.0
1.6324732303619385,646.0
1.6370251178741455,625.0
1.6962602138519287,604.0
1.6998989582061768,583.0
1.7036380767822266,562.0
1.7073218822479248,542.0
1.7111129760742188,524.0
1.7146928310394287,511.0
1.7191369533538818,503.0
1.7365970611572266,500.0
1.7767691612243652,502.0
1.7800688743591309,503.0
1.7835478782653809,506.0
1.786851167678833,509.0
1.7906250953674316,511.0
1.7942478656768799,514.0
1.8318510055541992,516.0
1.8350820541381836,518.0
1.838521957397461,515.0
1.842297077178955,513.0
1.846013069152832,512.0
1.8495512008666992,512.0
1.8539040088653564,512.0
1.8760550022125244,511.0
1.8797059059143066,512.0
1.8833191394805908,510.0
1.8876359462738037,507.0
1.909735918045044,504.0
1.9138131141662598,502.0
1.9182488918304443,499.0
1.9422688484191895,494.0
1.9459939002990723,489.0
1.950361967086792,487.0
1.994959831237793,483.0
1.9985411167144775,483.0
2.002255916595459,483.0
2.0057990550994873,483.0
2.011077880859375,483.0
2.029803991317749,481.0
2.033094882965088,480.0
2.0368130207061768,479.0
2.040555000305176,476.0
2.0490341186523438,474.0
2.0523459911346436,469.0
2.1005351543426514,464.0
2.1038448810577393,463.0
2.1072120666503906,462.0
2.1105549335479736,462.0
2.113807201385498,463.0
2.1462128162384033,464.0
2.149960994720459,465.0
2.15360689163208,466.0
2.157140016555786,468.0
2.1615381240844727,469.0
2.1832940578460693,470.0
2.1867289543151855,472.0
2.191175937652588,471.0
2.214776039123535,470.0
2.2184879779815674,470.0
2.2222049236297607,469.0
2.226591110229492,469.0
2.2485759258270264,470.0
2.2522530555725098,470.0
2.256650924682617,468.0
2.295042037963867,469.0
2.2987070083618164,467.0
2.302361011505127,466.0
2.3059170246124268,466.0
2.3102798461914062,464.0
2.331374168395996,463.0
2.334805965423584,462.0
2.3397371768951416,464.0
2.362819194793701,464.0
2.3664309978485107,464.0
2.3702399730682373,462.0
2.374109983444214,462.0
2.4192209243774414,461.0
2.42262601852417,461.0
2.425922155380249,459.0
2.429237127304077,460.0
2.432506799697876,460.0
2.4574739933013916,461.0
2.4611871242523193,468.0
2.464951992034912,482.0
2.4694058895111084,502.0
2.4911770820617676,527.0
2.4947519302368164,560.0
2.49908709526062,594.0
2.523582935333252,630.0
2.5272178649902344,663.0
2.531607151031494,689.0
2.5562150478363037,711.0
2.5600829124450684,723.0
2.5637691020965576,727.0
2.5681228637695312,722.0
2.597353935241699,711.0
2.600938081741333,695.0
2.604564905166626,671.0
2.6090188026428223,645.0
2.6310741901397705,620.0
2.6351821422576904,595.0
2.639928102493286,574.0
2.667268991470337,556.0
2.6709389686584473,544.0
2.6746199131011963,536.0
2.678948163986206,530.0
2.717479944229126,527.0
2.721169948577881,527.0
2.7248032093048096,526.0
2.7280631065368652,524.0
2.732424020767212,523.0
2.7645938396453857,522.0
2.7681491374969482,520.0
2.771743059158325,519.0
2.7752788066864014,516.0
2.7804951667785645,511.0
2.7997989654541016,507.0
2.8034780025482178,504.0
2.8078668117523193,502.0
2.8324248790740967,499.0
2.8359601497650146,498.0
2.841275930404663,497.0
2.893775224685669,497.0
2.8974509239196777,500.0
2.9012269973754883,502.0
2.905092239379883,503.0
2.9088079929351807,503.0
2.9123599529266357,503.0
2.915886878967285,500.0
2.921049118041992,498.0
2.9397571086883545,495.0
2.9435038566589355,492.0
2.9479010105133057,484.0
2.9723541736602783,478.0
2.9759581089019775,473.0
2.9802939891815186,470.0
3.0047669410705566,467.0
3.008463144302368,466.0
3.0128350257873535,465.0
3.0373029708862305,466.0
3.041017770767212,465.0
3.0454070568084717,465.0
3.0699400901794434,464.0
3.0742640495300293,466.0
3.0786361694335938,465.0
3.10268497467041,467.0
3.1028521060943604,467.0
3.10604190826416,470.0
3.109468936920166,470.0
3.1127490997314453,471.0
3.1376819610595703,474.0
3.140594005584717,477.0
3.1448540687561035,478.0
3.193695068359375,479.0
3.1978020668029785,480.0
3.2014548778533936,480.0
3.205350875854492,480.0
3.208883047103882,479.0
3.213275909423828,478.0
3.233572006225586,478.0
3.2372710704803467,476.0
3.241680860519409,475.0
3.2715508937835693,472.0
3.2749509811401367,471.0
3.278254985809326,471.0
3.2816078662872314,470.0
3.307337999343872,468.0
3.310927152633667,465.0
3.3145899772644043,466.0
3.31906795501709,465.0
3.358873128890991,464.0
3.3620858192443848,463.0
3.3653790950775146,464.0
3.3688011169433594,464.0
3.3721189498901367,464.0
3.3997690677642822,464.0
3.403459072113037,465.0
3.4071171283721924,465.0
3.4122848510742188,467.0
3.433566093444824,466.0
3.43730092048645,465.0
3.4416959285736084,464.0
3.4920849800109863,464.0
3.495666027069092,463.0
3.499242067337036,462.0
3.502912998199463,461.0
3.5065040588378906,461.0
3.510031223297119,460.0
3.5144009590148926,458.0
3.5322539806365967,457.0
3.535965919494629,457.0
3.5403478145599365,458.0
3.564790964126587,459.0
3.5680971145629883,461.0
3.5716190338134766,463.0
3.5748770236968994,465.0
3.59860897064209,466.0
3.6022531986236572,468.0
3.6066508293151855,469.0
3.6310651302337646,469.0
3.63457989692688,468.0
3.638935089111328,465.0
3.6635031700134277,464.0
3.667915105819702,464.0
3.6712820529937744,465.0
3.696063995361328,471.0
3.699690103530884,481.0
3.70397686958313,497.0
3.7276790142059326,518.0
3.7278499603271484,545.0
3.731300115585327,579.0
3.7357499599456787,615.0
3.796339988708496,652.0
3.7999298572540283,685.0
3.8037168979644775,718.0
3.8075342178344727,745.0
3.8112950325012207,765.0
3.8149361610412598,777.0
3.8186280727386475,777.0
3.822935104370117,769.0
3.8410420417785645,755.0
3.8447349071502686,735.0
3.849181890487671,713.0
3.87266206741333,689.0
3.876404047012329,668.0
3.8803470134735107,648.0
3.8887619972229004,631.0
3.8922200202941895,619.0
3.9210739135742188,610.0
3.9247381687164307,605.0
3.929945945739746,602.0
3.9562060832977295,600.0
3.9599649906158447,597.0
3.9636528491973877,595.0
3.9680728912353516,591.0
3.9973278045654297,587.0
4.000936031341553,583.0
4.004590034484863,576.0
4.009001016616821,569.0
4.031216859817505,562.0
4.0346760749816895,555.0
4.038992881774902,547.0
4.093873977661133,540.0
4.0974650382995605,532.0
4.101229190826416,528.0
4.1049370765686035,525.0
4.108547210693359,523.0
4.112977981567383,522.0
4.131075143814087,519.0
4.134793996810913,518.0
4.138269901275635,516.0
4.141870021820068,513.0
4.1454432010650635,507.0
4.149806022644043,503.0
4.174828052520752,499.0
4.178493976593018,496.0
4.181777000427246,493.0
4.250498056411743,489.0
4.253871917724609,487.0
4.257272005081177,484.0
4.260616064071655,482.0
4.2639548778533936,480.0
4.267827033996582,476.0
4.294776201248169,473.0
4.298672914505005,471.0
4.302424192428589,470.0
4.306043863296509,468.0
4.3096230030059814,467.0
4.314079999923706,467.0
4.333529949188232,467.0
4.3371851444244385,470.0
4.341598033905029,468.0
4.39377498626709,468.0
4.397423982620239,469.0
4.401156902313232,471.0
4.40484881401062,472.0
4.408655881881714,474.0
4.412211894989014,475.0
4.416627883911133,475.0
4.434787034988403,475.0
4.4384520053863525,475.0
4.442131996154785,474.0
4.446475028991699,473.0
4.468905925750732,472.0
4.472577095031738,471.0
4.476983070373535,471.0
4.54064416885376,469.0
4.543855905532837,466.0
4.547275066375732,462.0
4.551513910293579,459.0
4.555260896682739,456.0
4.559114933013916,457.0
4.592926979064941,458.0
4.596350908279419,457.0
4.600282907485962,459.0
4.604102849960327,462.0
4.6077189445495605,463.0
4.611302852630615,465.0
4.61483097076416,466.0
4.620081901550293,467.0
4.6372389793396,468.0
4.640951156616211,469.0
4.6453680992126465,469.0
4.7076051235198975,468.0
4.711238861083984,468.0
4.714972019195557,467.0
4.718818187713623,466.0
4.722532033920288,463.0
4.72618293762207,463.0
4.72943377494812,463.0
4.734642028808594,460.0
4.75224494934082,460.0
4.755764007568359,460.0
4.760128974914551,460.0
4.784789085388184,461.0
4.788438081741333,463.0
4.79249906539917,463.0
4.795769214630127,464.0
4.818670034408569,464.0
4.822252988815308,466.0
4.8266282081604,467.0
4.851023197174072,469.0
4.8547070026397705,471.0
4.859971046447754,472.0
4.883524179458618,470.0
4.887203216552734,470.0
4.8916637897491455,468.0
4.916146993637085,468.0
4.9197609424591064,466.0
4.924177885055542,466.0
4.948574066162109,466.0
4.952172040939331,470.0
4.955821990966797,478.0
4.960252046585083,489.0
4.992435932159424,508.0
4.9960551261901855,533.0
4.999297142028809,563.0
5.003086090087891,598.0
5.006922006607056,633.0
5.014827013015747,670.0
5.020169973373413,704.0
5.046091079711914,732.0
5.049753904342651,753.0
5.054138898849487,763.0
5.079793930053711,765.0
5.083449125289917,758.0
5.087831020355225,743.0
5.114767789840698,722.0
5.118484973907471,697.0
5.122902154922485,671.0
5.147367000579834,645.0
5.151037931442261,620.0
5.1546289920806885,601.0
5.159015893936157,586.0
5.181048154830933,574.0
5.184684991836548,566.0
5.189105033874512,561.0
5.213498830795288,557.0
5.217226028442383,554.0
5.220844030380249,552.0
5.2252209186553955,548.0
5.247307062149048,544.0
5.251219987869263,540.0
5.255664825439453,534.0
5.316509008407593,529.0
5.320013999938965,525.0
5.323694944381714,520.0
5.327437162399292,517.0
5.3311779499053955,514.0
5.334766149520874,511.0
5.33995795249939,510.0
5.357264995574951,509.0
5.3609678745269775,510.0
5.364604949951172,509.0
5.369009971618652,508.0
5.3911659717559814,507.0
5.394670009613037,505.0
5.399091005325317,504.0
5.422642946243286,503.0
5.426086902618408,501.0
5.429800033569336,499.0
5.434997081756592,496.0
5.457309007644653,493.0
5.461461067199707,489.0
5.466298818588257,486.0
5.470707893371582,481.0
5.4985878467559814,477.0
5.502259969711304,471.0
5.505859136581421,464.0
5.531180143356323,457.0
5.534735918045044,455.0
5.539071083068848,455.0
5.594609975814819,457.0
5.598188161849976,461.0
5.601730108261108,465.0
5.605264902114868,468.0
5.610152006149292,471.0
5.614415884017944,472.0
5.62568998336792,473.0
5.656182050704956,473.0
5.656346797943115,473.0
5.656527996063232,473.0
5.6598029136657715,472.0
5.663545846939087,471.0
5.667957067489624,470.0
5.691636085510254,468.0
5.694698095321655,467.0
5.699076890945435,465.0
5.722798824310303,464.0
5.7263500690460205,463.0
5.7301177978515625,462.0
5.756924867630005,459.0
5.760436058044434,457.0
5.764515161514282,455.0
5.768883943557739,454.0
5.789897918701172,455.0
5.793497085571289,455.0
5.797892093658447,456.0
5.830471038818359,456.0
5.8336021900177,456.0
5.836869955062866,456.0
5.840712070465088,456.0
5.893049001693726,455.0
5.8974609375,455.0
5.917373895645142,457.0
5.920569896697998,459.0
5.923871040344238,460.0
5.927203178405762,460.0
5.9305500984191895,462.0
5.934244871139526,462.0
5.9377570152282715,462.0
5.942137956619263,462.0
5.962262153625488,463.0
5.965918064117432,463.0
5.970300912857056,463.0
5.994767189025879,462.0
5.998488187789917,462.0
6.002838134765625,459.0
6.03151798248291,456.0
6.0348219871521,455.0
6.038510799407959,455.0
6.042888879776001,454.0
6.0660412311553955,451.0
6.069678783416748,449.0
6.073336124420166,448.0
6.077711820602417,447.0
6.099780082702637,446.0
6.103449821472168,446.0
6.107850074768066,447.0
6.122575998306274,449.0
6.126024007797241,452.0
6.153568983078003,455.0
6.157193899154663,457.0
6.161860227584839,460.0
6.1959099769592285,462.0
6.199579954147339,464.0
6.2032389640808105,465.0
6.207657098770142,466.0
6.228995084762573,465.0
6.23291802406311,464.0
6.240256071090698,465.0
6.243984937667847,467.0
6.247490167617798,474.0
6.272389888763428,486.0
6.27656102180481,505.0
6.280751943588257,530.0
6.2845618724823,559.0
6.309497833251953,591.0
6.313701868057251,625.0
6.318641901016235,657.0
6.3418638706207275,687.0
6.345329999923706,711.0
6.3488709926605225,727.0
6.383876800537109,733.0
6.387460947036743,733.0
6.3911449909210205,723.0
6.394725799560547,708.0
6.399120807647705,688.0
6.419816970825195,664.0
6.423473834991455,638.0
6.427865982055664,613.0
6.453264951705933,591.0
6.456727981567383,572.0
6.461082935333252,556.0
6.484943866729736,543.0
6.488443851470947,533.0
6.492156982421875,529.0
6.496458053588867,527.0
6.518548011779785,527.0
6.522279977798462,527.0
6.526707887649536,527.0
6.557345151901245,525.0
6.560987949371338,524.0
6.564590215682983,522.0
6.568968057632446,520.0
6.591017007827759,518.0
6.5946760177612305,517.0
6.599078893661499,516.0
6.623595952987671,515.0
6.627235174179077,515.0
6.632467985153198,515.0
6.73187518119812,515.0
6.735147953033447,515.0
6.738532781600952,513.0
6.741825103759766,512.0
6.745081186294556,511.0
6.749758958816528,508.0
6.752995014190674,504.0
6.756453990936279,500.0
6.759875059127808,495.0
6.763123035430908,490.0
6.76668906211853,484.0
6.770542144775391,479.0
6.773810863494873,475.0
6.777333974838257,471.0
6.781707048416138,468.0
6.802335977554321,465.0
6.805974006652832,463.0
6.81035590171814,462.0
6.834974050521851,460.0
6.838491916656494,460.0
6.84180212020874,460.0
6.868179082870483,460.0
6.871697902679443,463.0
6.876893043518066,464.0
6.899837017059326,467.0
6.9035210609436035,469.0
6.907918214797974,472.0
6.932304859161377,472.0
6.932469129562378,472.0
6.935949087142944,472.0
6.9395740032196045,471.0
6.9441609382629395,470.0
7.020568132400513,471.0
7.023863077163696,471.0
7.027345895767212,472.0
7.03060507774353,471.0
7.03387188911438,470.0
7.037783145904541,468.0
7.041568994522095,468.0
7.045368194580078,466.0
7.057382822036743,464.0
7.06101393699646,464.0
7.0646421909332275,463.0
7.06904411315918,462.0
7.091012954711914,462.0
7.094583034515381,460.0
7.098995923995972,460.0
7.123557806015015,458.0
7.127308130264282,458.0
7.1309919357299805,458.0
7.135380983352661,457.0
7.156816005706787,457.0
7.1601128578186035,458.0
7.163407802581787,459.0
7.197522878646851,461.0
7.201059103012085,462.0
7.20480489730835,464.0
7.20918607711792,465.0
7.2323219776153564,468.0
7.235993146896362,470.0
7.240384101867676,471.0
7.289316177368164,471.0
7.292617082595825,471.0
7.296064138412476,471.0
7.299520015716553,472.0
7.30308198928833,472.0
7.307480096817017,471.0
7.327444076538086,469.0
7.331017017364502,469.0
7.336221933364868,467.0
7.35909104347229,467.0
7.362370014190674,467.0
7.365885972976685,470.0
7.36933708190918,476.0
7.374812841415405,488.0
7.379321813583374,505.0
7.406055927276611,532.0
7.409582853317261,565.0
7.413952112197876,602.0
7.438538074493408,641.0
7.442263126373291,680.0
7.44660210609436,717.0
7.4766762256622314,748.0
7.4810590744018555,772.0
7.484777927398682,784.0
7.48909592628479,787.0
7.512295961380005,780.0
7.515972852706909,766.0
7.520411014556885,744.0
7.544810056686401,717.0
7.5484840869903564,689.0
7.55210018157959,660.0
7.557263135910034,633.0
7.585743188858032,610.0
7.590126037597656,591.0
7.5937840938568115,575.0
7.598119020462036,565.0
7.6210691928863525,557.0
7.624765872955322,552.0
7.629151105880737,548.0
7.653619050979614,547.0
7.657196044921875,544.0
7.660799026489258,542.0
7.686141014099121,539.0
7.689732789993286,536.0
7.694103002548218,534.0
7.718562126159668,531.0
7.722218990325928,527.0
7.726258993148804,524.0
7.729481935501099,521.0
7.752432823181152,519.0
7.755983829498291,516.0
7.760281801223755,516.0
7.784836053848267,514.0
7.788511037826538,513.0
7.792162179946899,512.0
7.796597003936768,510.0
7.8376781940460205,508.0
7.841214895248413,505.0
7.844855070114136,503.0
7.848441123962402,499.0
7.852829933166504,495.0
7.929383039474487,492.0
7.932622194290161,489.0
7.935522079467773,485.0
7.938969135284424,480.0
7.941509008407593,475.0
7.945176124572754,471.0
7.949062824249268,466.0
7.952855110168457,463.0
7.978604078292847,462.0
7.982280969619751,461.0
7.986361980438232,460.0
7.990077018737793,461.0
7.993786811828613,463.0
7.997381925582886,464.0
8.001078128814697,464.0
8.005470991134644,466.0
8.029852867126465,468.0
8.033437013626099,472.0
8.037744998931885,474.0
8.062341928482056,476.0
8.066243171691895,477.0
8.070041179656982,476.0
8.07354187965393,475.0
8.102843999862671,474.0
8.106420993804932,474.0
8.110026121139526,473.0
8.135200023651123,472.0
8.138489007949829,472.0
8.141892194747925,472.0
8.149468898773193,469.0
8.189204931259155,467.0
8.192356824874878,464.0
8.195751905441284,462.0
8.199011087417603,460.0
8.199177026748657,457.0
8.242967128753662,455.0
8.246407985687256,455.0
8.249862909317017,455.0
8.253281116485596,455.0
8.25686502456665,456.0
8.26063323020935,455.0
8.284898042678833,458.0
8.288665056228638,458.0
8.29290509223938,460.0
8.317501068115234,460.0
8.321145057678223,460.0
8.324868202209473,461.0
8.32918095588684,462.0
8.350980043411255,463.0
8.354710102081299,462.0
8.359130859375,463.0
8.382802963256836,461.0
8.386542081832886,461.0
8.391119956970215,460.0
8.396325826644897,457.0
8.424885034561157,456.0
8.428477048873901,454.0
8.432124853134155,451.0
8.436438083648682,451.0
8.49416184425354,451.0
8.49745488166809,451.0
8.500868797302246,451.0
8.504926919937134,452.0
8.508709907531738,453.0
8.512300968170166,455.0
8.517899990081787,457.0
8.521574020385742,459.0
8.525913000106812,460.0
8.549875020980835,463.0
8.553467988967896,464.0
8.558655023574829,465.0
8.581721782684326,467.0
8.585479974746704,468.0
8.591382026672363,468.0
8.59486699104309,467.0
8.623652219772339,468.0
8.627259016036987,473.0
8.631505966186523,483.0
8.635862112045288,500.0
8.659770965576172,525.0
8.663465023040771,557.0
8.667912006378174,595.0
8.691647052764893,636.0
8.696393013000488,678.0
8.700159072875977,716.0
8.704489946365356,747.0
8.729821920394897,771.0
8.733108043670654,785.0
8.73746109008789,790.0
8.782876014709473,784.0
8.786386013031006,770.0
8.790344953536987,749.0
8.79895806312561,723.0
8.802345037460327,692.0
8.805661916732788,660.0
8.809979915618896,630.0
8.833696126937866,605.0
8.837258100509644,585.0
8.840879917144775,571.0
8.845216989517212,561.0
8.867291927337646,557.0
8.870944023132324,556.0
8.875293970108032,556.0
8.899837017059326,557.0
8.903532028198242,560.0
8.907970190048218,560.0
8.932342052459717,559.0
8.9359769821167,557.0
8.940316915512085,553.0
8.96476697921753,549.0
8.968483209609985,543.0
8.972887992858887,537.0
9.003724098205566,530.0
9.007325887680054,524.0
9.011086225509644,520.0
9.015420913696289,517.0
9.038552045822144,515.0
9.042130947113037,513.0
9.046447992324829,512.0
9.083833932876587,511.0
9.087459087371826,509.0
9.09097695350647,507.0
9.094581127166748,505.0
9.097836971282959,503.0
9.101171016693115,497.0
9.117311000823975,494.0
9.120952129364014,488.0
9.125273942947388,482.0
9.14977216720581,475.0
9.153366088867188,469.0
9.15768814086914,464.0
9.182309865951538,460.0
9.185960054397583,457.0
9.190446138381958,456.0
9.214828968048096,456.0
9.218990087509155,456.0
9.223422050476074,457.0
9.247287034988403,457.0
9.250904083251953,457.0
9.25534200668335,458.0
9.259707927703857,458.0
9.286094188690186,458.0
9.289708137512207,460.0
9.293326139450073,460.0
9.296639919281006,461.0
9.319968938827515,463.0
9.323502779006958,463.0
9.327878952026367,465.0
9.386398077011108,466.0
9.390239953994751,467.0
9.39383602142334,469.0
9.398809909820557,469.0
9.402036905288696,470.0
9.405283212661743,470.0
9.40855097770691,469.0
9.427321910858154,468.0
9.430974006652832,468.0
9.434618949890137,467.0
9.439823150634766,463.0
9.4618399143219,462.0
9.465506076812744,460.0
9.469099998474121,459.0
9.474334001541138,457.0
9.497341871261597,457.0
9.501085996627808,458.0
9.504411935806274,461.0
9.53064513206482,471.0
9.5342378616333,486.0
9.53863000869751,508.0
9.562348127365112,536.0
9.566012859344482,572.0
9.57039213180542,612.0
9.594894170761108,653.0
9.598518133163452,691.0
9.603373050689697,725.0
9.627357006072998,750.0
9.630964040756226,766.0
9.634624004364014,772.0
9.638980865478516,768.0
9.683749914169312,755.0
9.687315940856934,735.0
9.690991878509521,709.0
9.694632053375244,680.0
9.698244094848633,650.0
9.70273208618164,620.0
9.726546049118042,595.0
9.72989296913147,575.0
9.733296871185303,559.0
9.736597061157227,547.0
9.780505180358887,539.0
9.783862113952637,533.0
9.787222146987915,527.0
9.79052186012268,523.0
9.793822050094604,517.0
9.819975852966309,512.0
9.823601007461548,506.0
9.827347040176392,501.0
9.831718921661377,497.0
9.853618860244751,493.0
9.85726284980774,489.0
9.861671924591064,486.0
9.88606595993042,483.0
9.889745950698853,483.0
9.89411211013794,482.0
9.917824983596802,483.0
9.921133041381836,486.0
9.924474954605103,488.0
9.928853988647461,489.0
9.983895063400269,488.0
9.987515926361084,488.0
9.991326093673706,488.0
9.99509310722351,487.0
9.998708963394165,484.0
10.00229787826538,482.0
10.00667691230774,477.0
10.02893590927124,473.0
10.032313823699951,469.0
10.035719871520996,465.0
10.040905952453613,461.0
10.06364107131958,459.0
10.06720495223999,456.0
10.071545124053955,452.0
10.09609079360962,447.0
10.099721908569336,444.0
10.104084968566895,444.0
10.131059885025024,444.0
10.134714841842651,444.0
10.138365030288696,447.0
10.142758846282959,449.0
10.164829969406128,451.0
10.168486833572388,453.0
10.172150135040283,453.0
10.176548957824707,452.0
10.198553800582886,452.0
10.202194929122925,454.0
10.206607818603516,455.0
10.234791040420532,455.0
10.238461971282959,456.0
10.242878913879395,456.0
10.284985065460205,455.0
10.288553953170776,455.0
10.292195081710815,455.0
10.295887231826782,455.0
10.299418926239014,456.0
10.30380916595459,455.0
10.32165789604187,454.0
10.325053930282593,455.0
10.3283531665802,453.0
10.332391023635864,454.0
10.357456922531128,454.0
10.361016035079956,454.0
10.36537504196167,454.0
10.3954439163208,453.0
10.399878025054932,453.0
10.403601884841919,453.0
10.407962799072266,452.0
10.434886932373047,450.0
10.438590049743652,450.0
10.442351818084717,452.0
10.446713924407959,452.0
10.468544006347656,452.0
10.472212076187134,452.0
10.476665019989014,452.0
10.501389026641846,452.0
10.505207061767578,452.0
10.509580135345459,450.0
10.534089088439941,449.0
10.537557125091553,448.0
10.541147947311401,446.0
10.54548192024231,444.0
10.58498215675354,444.0
10.588541030883789,445.0
10.592243909835815,443.0
10.595911979675293,443.0
10.601094961166382,445.0
10.622313022613525,445.0
10.62563681602478,447.0
10.629130125045776,448.0
10.654719114303589,449.0
10.658308982849121,449.0
10.662645101547241,450.0
10.688291072845459,449.0
10.692585945129395,449.0
10.696968078613281,451.0
10.724054098129272,452.0
10.727526903152466,454.0
10.731204986572266,454.0
10.734579086303711,455.0
10.757467985153198,455.0
10.761068105697632,457.0
10.761236906051636,459.0
10.765405893325806,458.0
10.789827108383179,458.0
10.793499946594238,459.0
10.798707008361816,465.0
10.822564840316772,478.0
10.826056003570557,499.0
10.83046817779541,526.0
10.886632919311523,560.0
10.890162944793701,601.0
10.89386796951294,644.0
10.897657871246338,688.0
10.901167869567871,728.0
10.904778003692627,761.0
10.909121990203857,785.0
10.927342891693115,800.0
10.931001901626587,804.0
10.935392141342163,798.0
10.959097862243652,783.0
10.962354898452759,760.0
10.965666055679321,732.0
10.968928098678589,701.0
10.993550062179565,667.0
10.99723196029663,635.0
11.000909090042114,606.0
11.006026983261108,580.0
11.035621881484985,561.0
11.041711807250977,545.0
11.04512906074524,536.0
11.048673152923584,529.0
11.071118116378784,526.0
11.074745178222656,523.0
11.079116106033325,522.0
11.103652954101562,522.0
11.107337951660156,521.0
11.112509965896606,520.0
11.12618899345398,519.0
11.130632877349854,519.0
11.185755968093872,518.0
11.188168048858643,517.0
11.191751956939697,516.0
11.195372104644775,516.0
11.19906210899353,515.0
11.202687978744507,512.0
11.206999063491821,509.0
11.224869966506958,507.0
11.228501081466675,503.0
11.232170104980469,500.0
11.236556053161621,495.0
11.26357889175415,491.0
11.267191171646118,487.0
11.271559000015259,482.0
11.276103973388672,478.0
11.28053092956543,474.0
11.307317972183228,471.0
11.31109881401062,468.0
11.315458059310913,464.0
11.33984112739563,462.0
11.343493938446045,459.0
11.347052097320557,458.0
11.372368812561035,456.0
11.37606406211853,456.0
11.380406141281128,457.0
11.404823064804077,458.0
11.40847110748291,458.0
11.412151098251343,458.0
11.417368173599243,457.0
11.43855094909668,457.0
11.442239999771118,457.0
11.446592092514038,458.0
11.485005140304565,457.0
11.488744020462036,460.0
11.49241304397583,461.0
11.495973825454712,462.0
11.500332117080688,462.0
11.521075963973999,462.0
11.524763822555542,463.0
11.529209852218628,463.0
11.553596019744873,463.0
11.556837797164917,462.0
11.560187816619873,462.0
11.586084842681885,462.0
11.589715003967285,461.0
11.594828128814697,461.0
11.618564128875732,458.0
11.62221908569336,457.0
11.625871896743774,457.0
11.630234956741333,457.0
11.652637958526611,456.0
11.656023979187012,454.0
11.659305095672607,453.0
11.677352905273438,451.0
11.681025981903076,450.0
11.685401916503906,448.0
11.709821939468384,447.0
11.71347689628601,448.0
11.71781301498413,447.0
11.74145793914795,446.0
11.744801998138428,446.0
11.748311042785645,447.0
11.783797025680542,448.0
11.787376880645752,449.0
11.791018962860107,451.0
11.794832944869995,452.0
11.799290895462036,453.0
11.826250076293945,455.0
11.829898118972778,455.0
11.833656072616577,457.0
11.838032960891724,459.0
11.859831094741821,460.0
11.863107204437256,466.0
11.866917848587036,478.0
11.878566980361938,497.0
11.883112907409668,523.0
11.909956932067871,555.0
11.913571119308472,591.0
11.917908906936646,630.0
11.942253112792969,668.0
11.94599199295044,706.0
11.95127820968628,736.0
11.975389003753662,758.0
11.978761911392212,770.0
11.983304977416992,774.0
12.008547067642212,766.0
12.012115955352783,750.0
12.017283201217651,728.0
12.041075944900513,702.0
12.04484510421753,671.0
12.048516988754272,640.0
12.052101850509644,610.0
12.056499004364014,585.0
12.084910154342651,565.0
12.088619947433472,550.0
12.092396020889282,539.0
12.097624063491821,529.0
12.118564128875732,523.0
12.122282981872559,519.0
12.126648187637329,513.0
12.151227951049805,509.0
12.154904127120972,504.0
12.159323930740356,499.0
12.183619022369385,495.0
12.187238931655884,494.0
12.19157600402832,494.0
12.216100215911865,495.0
12.219801187515259,496.0
12.224953174591064,499.0
12.248563051223755,504.0
12.252228021621704,508.0
12.25586986541748,513.0
12.260398149490356,516.0
12.288871049880981,520.0
12.292277097702026,522.0
12.295897006988525,521.0
12.300586938858032,519.0
12.318870067596436,514.0
12.322350025177002,510.0
12.326685905456543,502.0
12.352356195449829,494.0
12.356217861175537,486.0
12.360623836517334,479.0
12.392606019973755,472.0
12.396960973739624,465.0
12.400767087936401,460.0
12.405273199081421,455.0
12.41069483757019,450.0
12.415303945541382,448.0
12.44240689277649,447.0
12.446024894714355,447.0
12.450393199920654,447.0
12.474807024002075,446.0
12.478157043457031,447.0
12.481857061386108,450.0
12.485488891601562,453.0
12.493205070495605,456.0
12.522367000579834,459.0
12.526046991348267,462.0
12.530616044998169,465.0
12.55516505241394,465.0
12.558884143829346,468.0
12.562514066696167,470.0
12.56683087348938,471.0
12.595085144042969,472.0
12.598706007003784,473.0
12.602981805801392,473.0
12.627458095550537,473.0
12.631001949310303,472.0
12.63466501235962,471.0
12.639005899429321,469.0
12.696408033370972,469.0
12.700025081634521,468.0
12.70387887954712,466.0
12.707626104354858,465.0
12.711353778839111,463.0
12.715029954910278,462.0
12.71874213218689,460.0
12.724026918411255,458.0
12.741479873657227,458.0
12.744900226593018,457.0
12.749263048171997,455.0
12.77361011505127,454.0
12.777256965637207,455.0
12.780786991119385,454.0
12.806144952774048,453.0
12.80977201461792,454.0
12.813415050506592,453.0
12.818820238113403,452.0
12.839851140975952,453.0
12.843554019927979,453.0
12.847893953323364,452.0
12.872313022613525,451.0
12.875921964645386,452.0
12.880297899246216,455.0
12.904889106750488,463.0
12.908537864685059,476.0
12.912137031555176,499.0
12.916612148284912,527.0
12.980195045471191,566.0
12.983767986297607,611.0
12.987346887588501,661.0
12.99059510231018,710.0
12.994549989700317,757.0
13.005409002304077,798.0
13.029260158538818,827.0
13.032657861709595,843.0
13.036041975021362,847.0
13.039273977279663,839.0
13.042574167251587,819.0
13.045832872390747,792.0
13.085694074630737,758.0
13.088948011398315,723.0
13.092896938323975,686.0
13.096689939498901,652.0
13.100365161895752,622.0
13.136773824691772,596.0
13.139890909194946,577.0
13.14328908920288,563.0
13.146595001220703,554.0
13.149776935577393,549.0
13.154108047485352,546.0
13.206727981567383,545.0
13.209962129592896,544.0
13.2132248878479,542.0
13.216667890548706,537.0
13.220201015472412,532.0
13.223140239715576,528.0
13.226859092712402,523.0
13.33847713470459,518.0
13.338655948638916,513.0
13.338817119598389,508.0
13.339010000228882,503.0
13.339171171188354,501.0
13.339328050613403,499.0
13.339484930038452,498.0
13.341657161712646,497.0
13.345092058181763,496.0
13.348502159118652,496.0
13.35183310508728,495.0
13.355492115020752,493.0
13.359209060668945,490.0
13.363019943237305,485.0
13.396742820739746,480.0
13.400215148925781,476.0
13.40349006652832,472.0
13.40782117843628,467.0
13.411651134490967,463.0
13.451655864715576,460.0
13.454969882965088,456.0
13.45831298828125,454.0
13.4616379737854,451.0
13.464962005615234,451.0
13.50386095046997,449.0
13.50750207901001,448.0
13.511170148849487,447.0
13.51474404335022,447.0
13.5191490650177,448.0
13.540819883346558,449.0
13.544266939163208,452.0
13.547851085662842,453.0
13.553229093551636,454.0
13.610021829605103,454.0
13.613801956176758,454.0
13.617624044418335,454.0
13.621366024017334,456.0
13.625081777572632,457.0
13.628836154937744,459.0
13.632614850997925,460.0
13.63621211051941,460.0
13.640588998794556,461.0
13.66355299949646,462.0
13.667204856872559,462.0
13.671557903289795,462.0
13.695220947265625,460.0
13.698906898498535,458.0
13.702871084213257,456.0
13.712670087814331,454.0
13.715809106826782,453.0
13.744853019714355,452.0
13.748543977737427,450.0
13.75217580795288,449.0
13.75655198097229,448.0
13.778582096099854,448.0
13.782276153564453,448.0
13.786650896072388,448.0
13.810399055480957,448.0
13.814049005508423,449.0
13.819378852844238,450.0
13.844892024993896,451.0
13.848510980606079,451.0
13.852919101715088,452.0
13.885084867477417,452.0
13.888614892959595,452.0
13.892255067825317,453.0
13.8958899974823,454.0
13.90027904510498,454.0
13.923161029815674,455.0
13.926702976226807,455.0
13.931110858917236,455.0
13.9548921585083,454.0
13.958501815795898,453.0
13.962144136428833,452.0
13.966531038284302,451.0
13.988609075546265,450.0
13.992311000823975,450.0
13.996695041656494,449.0
14.02157998085022,451.0
14.025094985961914,452.0
14.028868913650513,454.0
14.032181978225708,455.0
14.06071400642395,456.0
14.06509804725647,457.0
14.069531917572021,459.0
14.094829082489014,460.0
14.098509073257446,462.0
14.103730916976929,461.0
14.127357959747314,461.0
14.131023168563843,461.0
14.13540506362915,461.0
14.185065031051636,461.0
14.18876600265503,464.0
14.192540884017944,472.0
14.1962571144104,489.0
14.196438074111938,513.0
14.199867010116577,548.0
14.204176902770996,589.0
14.23880910873413,636.0
14.242534875869751,684.0
14.246367931365967,730.0
14.249913930892944,770.0
14.253795146942139,801.0
14.257452964782715,820.0
14.261958837509155,827.0
14.287373065948486,822.0
14.291018009185791,808.0
14.295396089553833,784.0
14.363409042358398,755.0
14.366809129714966,721.0
14.413218021392822,687.0
14.416656970977783,653.0
14.420414924621582,620.0
14.42408800125122,594.0
14.431157112121582,574.0
14.434877872467041,561.0
14.438663959503174,553.0
14.442368030548096,548.0
14.446110010147095,547.0
14.449901103973389,546.0
14.453467845916748,544.0
14.457086086273193,543.0
14.462311029434204,539.0
14.486084222793579,535.0
14.489877939224243,531.0
14.493613004684448,525.0
14.49717092514038,520.0
14.501543998718262,516.0
14.531909942626953,513.0
14.535544157028198,510.0
14.539169073104858,507.0
14.543565034866333,504.0
14.567111015319824,500.0
14.570451974868774,499.0
14.57577395439148,497.0
14.598809003829956,494.0
14.6022789478302,490.0
14.606279850006104,487.0
14.610630989074707,483.0
14.631745100021362,478.0
14.635159015655518,474.0
14.638466119766235,468.0
14.684324026107788,465.0
14.6876699924469,462.0
14.691118955612183,460.0
14.694441080093384,457.0
14.697675943374634,455.0
14.700999021530151,454.0
14.731436014175415,451.0
14.734951972961426,451.0
14.738659143447876,451.0
14.742697954177856,451.0
14.784324884414673,451.0
14.787797927856445,452.0
14.791409015655518,453.0
14.795049905776978,454.0
14.79941201210022,454.0
14.819999933242798,455.0
14.823188066482544,456.0
14.826623916625977,457.0
14.8299560546875,456.0
14.854201078414917,457.0
14.858572006225586,458.0
14.877604007720947,459.0
14.881177186965942,459.0
14.884841918945312,460.0
14.889167785644531,460.0
14.893593788146973,460.0
14.921095848083496,460.0
14.924409866333008,460.0
14.92787504196167,460.0
14.95365309715271,459.0
14.957284212112427,458.0
14.961668968200684,458.0
14.987334966659546,456.0
14.991010189056396,454.0
14.99539303779602,451.0
15.019899845123291,451.0
15.02355408668518,449.0
15.026906967163086,448.0
15.030187129974365,446.0
15.083908796310425,445.0
15.087510108947754,445.0
15.091320037841797,446.0
15.095171213150024,446.0
15.098742008209229,447.0
15.102321863174438,448.0
15.106737852096558,450.0
15.124907970428467,451.0
15.129305124282837,452.0
15.132652044296265,454.0
15.135905027389526,455.0
15.159564971923828,456.0
15.162997007369995,458.0
15.1683509349823,458.0
15.192344188690186,457.0
15.1959810256958,457.0
15.200490951538086,455.0
15.22611689567566,454.0
15.229761123657227,454.0
15.233031988143921,453.0
15.2363440990448,451.0
15.259887933731079,453.0
15.26353406906128,453.0
15.267903089523315,451.0
15.293392896652222,451.0
15.296783924102783,452.0
15.301172018051147,455.0
15.325012922286987,455.0
15.328541040420532,455.0
15.332879066467285,457.0
15.336143970489502,457.0
15.38758897781372,458.0
15.39129090309143,459.0
15.39492678642273,461.0
15.398689985275269,461.0
15.402255058288574,461.0
15.406615972518921,460.0
15.424964904785156,458.0
15.42858600616455,456.0
15.432976961135864,455.0
15.457376956939697,453.0
15.46104907989502,452.0
15.464675188064575,452.0
15.469074010848999,451.0
15.491899967193604,452.0
15.495622873306274,454.0
15.500035047531128,462.0
15.521147012710571,473.0
15.525094032287598,495.0
15.529701948165894,521.0
15.534916877746582,555.0
15.605605840682983,595.0
15.609287977218628,639.0
15.654397010803223,683.0
15.658885955810547,724.0
15.663007020950317,758.0
15.666558027267456,785.0
15.670469999313354,800.0
15.67491602897644,803.0
15.69872784614563,796.0
15.702427864074707,778.0
15.706074953079224,752.0
15.70967698097229,722.0
15.71340012550354,688.0
15.717144012451172,654.0
15.721023082733154,622.0
15.724748134613037,594.0
15.728836059570312,569.0
15.732321977615356,551.0
15.736698865890503,538.0
15.754098892211914,532.0
15.757381916046143,527.0
15.76112413406372,524.0
15.76629090309143,521.0
15.78870701789856,519.0
15.792377233505249,515.0
15.797588109970093,513.0
15.823745965957642,511.0
15.827454090118408,508.0
15.831670045852661,505.0
15.86192011833191,503.0
15.865164041519165,501.0
15.868541955947876,498.0
15.872190952301025,495.0
15.876587152481079,492.0
15.898616075515747,489.0
15.902291059494019,487.0
15.906722068786621,485.0
15.931310176849365,481.0
15.934939861297607,480.0
15.939633846282959,478.0
15.98542594909668,475.0
15.988786935806274,472.0
15.99261212348938,469.0
15.9962739944458,464.0
15.999895095825195,460.0
16.00424098968506,457.0
16.022429943084717,455.0
16.026134967803955,453.0
16.030524015426636,451.0
16.054365873336792,449.0
16.06278705596924,449.0
16.066128969192505,448.0
16.06946301460266,448.0
16.09635305404663,447.0
16.10036611557007,446.0
16.10055923461914,448.0
16.104788064956665,448.0
16.13112711906433,449.0
16.135231971740723,450.0
16.139681100845337,450.0
16.15806794166565,450.0
16.16142201423645,450.0
16.165380239486694,449.0
16.168901920318604,449.0
16.198211193084717,450.0
16.202682971954346,449.0
16.207109928131104,449.0
16.232342958450317,448.0
16.23605704307556,448.0
16.240389823913574,449.0
16.285271167755127,449.0
16.28893280029297,448.0
16.29282784461975,447.0
16.296439170837402,447.0
16.30014395713806,447.0
16.303745985031128,447.0
16.308133840560913,448.0
16.330016136169434,448.0
16.333614110946655,449.0
16.33809995651245,449.0
16.36357879638672,448.0
16.36681294441223,448.0
16.37049698829651,448.0
16.374251127243042,447.0
16.386077880859375,447.0
16.391479015350342,447.0
16.41739010810852,446.0
16.42107915878296,445.0
16.426252126693726,445.0
16.44990110397339,445.0
16.45355200767517,447.0
16.457956075668335,448.0
16.4823260307312,448.0
16.48630404472351,448.0
16.49075412750244,448.0
16.517477989196777,447.0
16.521029949188232,446.0
16.524662017822266,446.0
16.529019832611084,446.0
16.551142930984497,446.0
16.555224180221558,446.0
16.55958890914917,448.0
16.590041875839233,448.0
16.59367299079895,448.0
16.59749722480774,448.0
16.601871967315674,449.0
16.623682022094727,449.0
16.62737011909485,450.0
16.631759881973267,450.0
16.65614891052246,449.0
16.659814834594727,451.0
16.66500997543335,451.0
16.688617944717407,452.0
16.692262887954712,455.0
16.695888996124268,463.0
16.7002592086792,479.0
16.723196983337402,504.0
16.726763010025024,536.0
16.73197913169861,576.0
16.75413990020752,619.0
16.757386922836304,661.0
16.760825157165527,701.0
16.764065980911255,736.0
16.796398162841797,763.0
16.799928188323975,779.0
16.803601026535034,783.0
16.808026790618896,778.0
16.831242084503174,764.0
16.834614992141724,743.0
16.838974952697754,715.0
16.888447999954224,684.0
16.8925838470459,653.0
16.896281957626343,623.0
16.900038957595825,597.0
16.903764963150024,574.0
16.90727710723877,555.0
16.911633014678955,541.0
16.932394981384277,532.0
16.936129093170166,526.0
16.939861059188843,521.0
16.94426393508911,518.0
16.967427015304565,515.0
16.972126960754395,513.0
16.97547698020935,511.0
16.999847888946533,509.0
17.003554105758667,508.0
17.00794005393982,507.0
17.032357931137085,506.0
17.03601312637329,507.0
17.040449142456055,507.0
17.06492590904236,507.0
17.068541049957275,506.0
17.073736906051636,506.0
17.096524000167847,505.0
17.099901914596558,504.0
17.103620052337646,503.0
17.10802412033081,500.0
17.131093978881836,498.0
17.134766101837158,495.0
17.139119863510132,491.0
17.187545776367188,487.0
17.191162824630737,481.0
17.194783926010132,477.0
17.198368072509766,472.0
17.201958894729614,469.0
17.206340074539185,463.0
17.224891901016235,460.0
17.228516101837158,457.0
17.2325119972229,455.0
17.236907958984375,451.0
17.258599996566772,451.0
17.2622389793396,452.0
17.266622066497803,454.0
17.291143894195557,455.0
17.294822931289673,457.0
17.299187898635864,457.0
17.323780059814453,456.0
17.32730507850647,458.0
17.331669092178345,459.0
17.356307983398438,459.0
17.3598849773407,459.0
17.36428999900818,460.0
17.396654844284058,461.0
17.400007963180542,461.0
17.40354585647583,461.0
17.40717101097107,462.0
17.411568880081177,462.0
17.439874172210693,462.0
17.44319200515747,463.0
17.44651699066162,463.0
17.44986391067505,463.0
17.497039794921875,463.0
17.500163078308105,463.0
17.50336480140686,463.0
17.50664496421814,464.0
17.50976586341858,462.0
17.512952089309692,460.0
17.562280893325806,458.0
17.565199851989746,456.0
17.56838822364807,455.0
17.571683168411255,455.0
17.574856996536255,454.0
17.578006982803345,452.0
17.620797872543335,451.0
17.62390398979187,450.0
17.627084016799927,450.0
17.630455017089844,451.0
17.63409686088562,453.0
17.63783288002014,456.0
17.641669988632202,457.0
17.676366090774536,460.0
17.68004608154297,461.0
17.683856964111328,463.0
17.687551975250244,464.0
17.69081401824951,466.0
17.712410926818848,468.0
17.716102838516235,472.0
17.720489978790283,475.0
17.744973182678223,476.0
17.748613834381104,478.0
17.753066062927246,479.0
17.785057067871094,480.0
17.789062023162842,480.0
17.792430877685547,479.0
17.79569101333618,478.0
17.799787044525146,476.0
17.8212890625,474.0
17.824883937835693,472.0
17.829216957092285,472.0
17.853721141815186,469.0
17.857273817062378,468.0
17.8609778881073,468.0
17.865331888198853,468.0
17.887426137924194,474.0
17.892431020736694,487.0
17.895699977874756,508.0
17.919851064682007,540.0
17.923513889312744,580.0
17.92791199684143,627.0
17.952354192733765,677.0
17.956083059310913,728.0
17.96045708656311,774.0
17.984846115112305,813.0
17.988860845565796,842.0
17.99266004562378,861.0
17.996052980422974,867.0
18.0127010345459,861.0
18.020491123199463,844.0
18.020655870437622,819.0
18.046095848083496,787.0
18.050161838531494,751.0
18.05580496788025,713.0
18.11196494102478,679.0
18.116123914718628,647.0
18.11966586112976,620.0
18.12330198287964,598.0
18.126874923706055,584.0
18.130395889282227,574.0
18.136032104492188,566.0
18.151512145996094,560.0
18.155122995376587,558.0
18.15850591659546,556.0
18.187477111816406,552.0
18.191086769104004,549.0
18.19466805458069,544.0
18.198204040527344,539.0
18.22116994857788,534.0
18.224891901016235,529.0
18.228633880615234,526.0
18.23305606842041,522.0
18.25612497329712,519.0
18.259801864624023,518.0
18.26503610610962,515.0
18.28858494758606,515.0
18.29230308532715,514.0
18.29669189453125,513.0
18.320379972457886,511.0
18.324077129364014,507.0
18.329591035842896,502.0
18.387601852416992,497.0
18.39112615585327,491.0
18.394927978515625,486.0
18.398607969284058,480.0
18.402374982833862,474.0
18.405823945999146,469.0
18.409069061279297,464.0
18.412380933761597,460.0
18.43360996246338,457.0
18.43729305267334,455.0
18.440964937210083,454.0
18.44532299041748,455.0
18.467385053634644,455.0
18.4710590839386,456.0
18.475504875183105,457.0
18.500149965286255,460.0
18.503628969192505,462.0
18.506911039352417,464.0
18.53245496749878,466.0
18.536048889160156,468.0
18.540398120880127,470.0
18.56489086151123,472.0
18.568499088287354,474.0
18.57285785675049,475.0
18.597341060638428,477.0
18.600894927978516,476.0
18.60523295402527,477.0
18.673064947128296,475.0
18.676411867141724,474.0
18.67992091178894,474.0
18.683763027191162,473.0
18.687002897262573,471.0
18.69032907485962,468.0
18.726380109786987,467.0
18.730016946792603,465.0
18.733886003494263,463.0
18.73776602745056,463.0
18.740648984909058,463.0
18.744165897369385,463.0
18.747448205947876,461.0
18.751031160354614,460.0
18.755396842956543,458.0
18.77484107017517,456.0
18.778559923171997,456.0
18.782175064086914,457.0
18.786566019058228,456.0
18.808593034744263,457.0
18.812452793121338,459.0
18.815825939178467,460.0
18.841245889663696,460.0
18.844866037368774,461.0
18.849334001541138,462.0
18.87382984161377,462.0
18.877608060836792,462.0
18.881244897842407,463.0
18.885601043701172,463.0
18.893265962600708,463.0
18.96939706802368,462.0
18.972720861434937,462.0
18.976184129714966,460.0
18.979478120803833,458.0
18.98276996612549,457.0
18.986034870147705,457.0
19.028844118118286,456.0
19.0325608253479,457.0
19.03635311126709,456.0
19.0401668548584,457.0
19.043883085250854,457.0
19.047616958618164,458.0
19.051265001296997,459.0
19.054800987243652,459.0
19.059197902679443,459.0
19.077404975891113,459.0
19.081016063690186,459.0
19.08466100692749,459.0
19.088999032974243,459.0
19.11111307144165,457.0
19.114763021469116,455.0
19.11918306350708,456.0
19.144455909729004,455.0
19.148064136505127,461.0
19.152430772781372,472.0
19.176149129867554,489.0
19.179791927337646,517.0
19.183400869369507,553.0
19.18776798248291,597.0
19.209931135177612,647.0
19.213533878326416,699.0
19.217891216278076,751.0
19.24157214164734,796.0
19.244794845581055,834.0
19.24925708770752,860.0
19.283818006515503,872.0
19.28753685951233,872.0
19.291605949401855,857.0
19.29525899887085,832.0
19.299134016036987,799.0
19.30348491668701,761.0
19.32933497428894,721.0
19.35749101638794,680.0
19.36111807823181,644.0
19.364687204360962,612.0
19.36822509765625,585.0
19.373857021331787,566.0
19.392328023910522,554.0
19.395910024642944,547.0
19.400331020355225,545.0
19.424854040145874,545.0
19.428159952163696,547.0
19.431675910949707,547.0
19.451151847839355,545.0
19.45484495162964,543.0
19.459316968917847,540.0
19.486099004745483,535.0
19.489646911621094,528.0
19.49396800994873,522.0
19.518632888793945,517.0
19.518797159194946,512.0
19.52233386039734,508.0
19.526750087738037,504.0
19.551100969314575,499.0
19.55502200126648,496.0
19.559417009353638,494.0
19.58983302116394,491.0
19.593562841415405,489.0
19.597199201583862,485.0
19.60155487060547,481.0
19.623684883117676,477.0
19.627288103103638,475.0
19.630861043930054,472.0
19.656188011169434,468.0
19.65981912612915,466.0
19.664219856262207,464.0
19.688740968704224,460.0
19.69227385520935,458.0
19.69593596458435,456.0
19.700304985046387,454.0
19.722496032714844,451.0
19.72606897354126,451.0
19.729686975479126,451.0
19.73324489593506,449.0
19.756086111068726,450.0
19.759823083877563,451.0
19.764230012893677,451.0
19.7886221408844,452.0
19.79231595993042,452.0
19.79748511314392,453.0
19.821230173110962,454.0
19.824892044067383,455.0
19.829249143600464,456.0
19.887743949890137,456.0
19.891332864761353,456.0
19.895085096359253,456.0
19.898601055145264,455.0
19.902701139450073,456.0
19.90641212463379,455.0
19.910015106201172,454.0
19.915210008621216,454.0
19.936174154281616,454.0
19.93952202796936,454.0
19.939718008041382,454.0
19.943219900131226,454.0
19.951969146728516,452.0
19.997583866119385,450.0
20.001307010650635,448.0
20.004963159561157,445.0
20.008491039276123,442.0
20.012916088104248,440.0
20.03364109992981,440.0
20.037271976470947,440.0
20.041626930236816,441.0
20.054888010025024,441.0
20.059391975402832,441.0
20.08636999130249,443.0
20.08988904953003,444.0
20.094264030456543,444.0
20.118671894073486,444.0
20.122297048568726,446.0
20.12748694419861,447.0
20.15052604675293,447.0
20.15394401550293,448.0
20.157604932785034,448.0
20.160918951034546,450.0
20.164122819900513,450.0
20.19301700592041,451.0
20.19742202758789,452.0
20.20109796524048,453.0
20.205515146255493,452.0
20.232379913330078,452.0
20.236035108566284,454.0
20.240410804748535,454.0
20.264853954315186,454.0
20.26857900619507,454.0
20.272945880889893,453.0
20.2973370552063,453.0
20.30108904838562,453.0
20.30465006828308,454.0
20.3090980052948,451.0
20.331297159194946,451.0
20.334873914718628,452.0
20.339282035827637,453.0
20.363682985305786,453.0
20.367326974868774,454.0
20.370922088623047,454.0
20.375308990478516,453.0
20.397387981414795,454.0
20.401087045669556,454.0
20.405433177947998,454.0
20.429846048355103,455.0
20.433557987213135,456.0
20.43793797492981,456.0
20.483942985534668,458.0
20.48750591278076,465.0
20.49115490913391,478.0
20.494736909866333,500.0
20.499149084091187,530.0
20.508676052093506,568.0
20.51232409477234,615.0
20.516697883605957,666.0
20.541112184524536,717.0
20.544772148132324,766.0
20.549817085266113,808.0
20.57359004020691,838.0
20.577304124832153,856.0
20.580943822860718,860.0
20.58536982536316,851.0
20.607372999191284,830.0
20.611047983169556,799.0
20.61550211906433,761.0
20.639865159988403,720.0
20.64390516281128,679.0
20.648271799087524,638.0
20.657912015914917,601.0
20.67244005203247,572.0
20.67690396308899,547.0
20.703673124313354,531.0
20.707298040390015,521.0
20.711636066436768,516.0
20.736356019973755,516.0
20.73995018005371,517.0
20.74433422088623,519.0
20.78799319267273,521.0
20.79128909111023,523.0
20.794896841049194,524.0
20.798647165298462,523.0
20.802361965179443,521.0
20.805944204330444,519.0
20.810308933258057,515.0
20.83090305328369,512.0
20.834300994873047,509.0
20.838659048080444,506.0
20.86174201965332,502.0
20.86529302597046,498.0
20.869179010391235,495.0
20.8975510597229,492.0
20.901126861572266,487.0
20.904683113098145,484.0
20.90911602973938,480.0
20.931164026260376,476.0
20.934798002243042,472.0
20.9391610622406,467.0
20.972996950149536,463.0
20.97640085220337,460.0
20.97978401184082,456.0
20.984308004379272,454.0
21.00883984565735,452.0
21.009016036987305,450.0
21.012362003326416,448.0
21.01676607131958,447.0
21.041168928146362,447.0
21.044776916503906,447.0
21.049227952957153,447.0
21.083019971847534,446.0
21.08632183074951,448.0
21.090059995651245,450.0
21.09375786781311,451.0
21.098154067993164,451.0
21.119898796081543,452.0
21.123597145080566,453.0
21.128162145614624,452.0
21.13291597366333,452.0
21.163876056671143,451.0
21.16617488861084,453.0
21.1695339679718,452.0
21.17897605895996,453.0
21.2082359790802,454.0
21.21304202079773,454.0
21.216383934020996,455.0
21.21954584121704,455.0
21.27704095840454,455.0
21.334582090377808,456.0
21.337724924087524,456.0
21.34092903137207,457.0
21.344243049621582,457.0
21.347618103027344,455.0
21.351062059402466,455.0
21.35428500175476,454.0
21.357473134994507,453.0
21.401968002319336,451.0
21.40517783164978,449.0
21.408404111862183,448.0
21.411724090576172,446.0
21.415096044540405,444.0
21.41913080215454,444.0
21.422927856445312,444.0
21.426642894744873,444.0
21.461806774139404,444.0
21.465232849121094,445.0
21.468653202056885,445.0
21.471951246261597,446.0
21.47520112991333,448.0
21.479135036468506,449.0
21.482784032821655,451.0
21.4860520362854,452.0
21.490224838256836,452.0
21.494149923324585,452.0
21.539374828338623,452.0
21.542682886123657,454.0
21.545987129211426,453.0
21.549257040023804,455.0
21.552402019500732,455.0
21.55559992790222,455.0
21.616899013519287,454.0
21.62017011642456,454.0
21.62340998649597,455.0
21.626711130142212,454.0
21.630416870117188,453.0
21.634116888046265,452.0
21.637842893600464,451.0
21.641679048538208,449.0
21.684558153152466,449.0
21.687737941741943,449.0
21.690919876098633,450.0
21.694286108016968,450.0
21.69792103767395,451.0
21.701632022857666,452.0
21.704832077026367,451.0
21.759402990341187,452.0
21.762838125228882,454.0
21.766172885894775,457.0
21.76942014694214,465.0
21.772815942764282,482.0
21.776714086532593,507.0
21.794173002243042,542.0
21.79745316505432,586.0
21.800692081451416,637.0
21.80397891998291,692.0
21.82878279685974,746.0
21.83231210708618,796.0
21.835970163345337,837.0
21.840325832366943,864.0
21.862404823303223,877.0
21.86605215072632,878.0
21.869714975357056,864.0
21.8753879070282,839.0
21.92011594772339,805.0
21.923754930496216,765.0
21.92754888534546,721.0
21.931357860565186,677.0
21.934962034225464,636.0
21.939316034317017,600.0
21.983936071395874,570.0
21.98717498779297,548.0
21.990571975708008,533.0
21.993837118148804,524.0
21.997034072875977,521.0
22.000388145446777,521.0
22.021263122558594,524.0
22.02477502822876,526.0
22.02991485595703,528.0
22.053691864013672,528.0
22.057296991348267,528.0
22.061009883880615,527.0
22.06539011001587,525.0
22.08652114868164,524.0
22.09020709991455,522.0
22.09423804283142,520.0
22.104907989501953,517.0
22.10947608947754,515.0
22.136168956756592,515.0
22.139657020568848,515.0
22.143940210342407,514.0
22.20052409172058,512.0
22.204200983047485,510.0
22.251917123794556,507.0
22.255236864089966,504.0
22.258422136306763,498.0
22.261718034744263,494.0
22.264883041381836,489.0
22.268067121505737,483.0
22.271274089813232,478.0
22.327052116394043,472.0
22.330740928649902,468.0
22.386905908584595,463.0
22.39043688774109,458.0
22.394197940826416,455.0
22.43569588661194,452.0
22.440178871154785,450.0
22.443931818008423,450.0
22.447674989700317,449.0
22.451727151870728,450.0
22.455204963684082,452.0
22.45892095565796,455.0
22.462677001953125,457.0
22.46645188331604,459.0
22.470466136932373,462.0
22.474157094955444,463.0
22.47773003578186,465.0
22.481416940689087,465.0
22.485220193862915,465.0
22.48894500732422,465.0
22.492668867111206,463.0
22.496372938156128,462.0
22.49978494644165,462.0
22.503093957901,462.0
22.506339073181152,461.0
22.50961995124817,459.0
22.509799003601074,459.0
22.529922008514404,459.0
22.53387999534607,460.0
22.53821110725403,461.0
22.590116024017334,459.0
22.593675136566162,459.0
22.597404956817627,459.0
22.600613832473755,458.0
22.60392999649048,457.0
22.607407808303833,457.0
22.610718965530396,457.0
22.634927988052368,457.0
22.638561010360718,456.0
22.64293599128723,457.0
22.667416095733643,456.0
22.671081066131592,456.0
22.67547607421875,455.0
22.69989514350891,453.0
22.703193187713623,451.0
22.706878900527954,451.0
22.707072973251343,451.0
22.712886095046997,452.0
22.716256141662598,452.0
22.744943857192993,452.0
22.748193979263306,452.0
22.752574920654297,453.0
22.777423858642578,454.0
22.781086921691895,455.0
22.785414934158325,455.0
22.80936098098755,455.0
22.82130002975464,457.0
22.8249249458313,457.0
22.829257011413574,457.0
22.912025928497314,457.0
22.91519808769226,458.0
22.918400049209595,459.0
22.921876907348633,458.0
22.92552089691162,457.0
22.92920708656311,456.0
22.97561812400818,457.0
22.97892999649048,457.0
22.982149839401245,457.0
22.985485076904297,456.0
22.98888611793518,457.0
22.99290704727173,458.0
22.996644020080566,459.0
23.000444889068604,460.0
23.01418399810791,460.0
23.01735806465149,459.0
23.020534992218018,458.0
23.025424003601074,458.0
23.029167890548706,457.0
23.071923971176147,458.0
23.075198888778687,464.0
23.07843518257141,476.0
23.08166003227234,496.0
23.084796905517578,525.0
23.087992191314697,564.0
23.12764000892639,610.0
23.131332874298096,663.0
23.135093927383423,718.0
23.13884997367859,770.0
23.142416954040527,816.0
23.146766185760498,851.0
23.205519199371338,872.0
23.206686973571777,879.0
23.210047006607056,872.0
23.21336603164673,851.0
23.216796875,820.0
23.220540046691895,782.0
23.22430109977722,739.0
23.228508949279785,694.0
23.253612995147705,651.0
23.25734806060791,612.0
23.261124849319458,579.0
23.264729022979736,551.0
23.269066095352173,531.0
23.29115104675293,519.0
23.294854879379272,513.0
23.299218893051147,513.0
23.32822823524475,515.0
23.332506895065308,519.0
23.336199045181274,524.0
23.340594053268433,527.0
23.363708019256592,528.0
23.36731505393982,528.0
23.370980978012085,527.0
23.375401973724365,523.0
23.397435903549194,519.0
23.401036024093628,515.0
23.405550956726074,511.0
23.414546012878418,508.0
23.443696975708008,506.0
23.447324991226196,504.0
23.45170783996582,502.0
23.48506999015808,499.0
23.48883295059204,496.0
23.492455005645752,494.0
23.49600601196289,491.0
23.500412940979004,487.0
23.520323038101196,483.0
23.5241219997406,480.0
23.527969121932983,476.0
23.53778100013733,472.0
23.54125690460205,468.0
23.56990098953247,465.0
23.573549032211304,463.0
23.577915906906128,461.0
23.604890823364258,459.0
23.60856819152832,457.0
23.612224102020264,456.0
23.61659598350525,455.0
23.63334608078003,455.0
23.637835025787354,455.0
23.643169164657593,455.0
23.672388076782227,457.0
23.676060914993286,457.0
23.680497884750366,458.0
23.704946041107178,459.0
23.708564043045044,459.0
23.712913990020752,460.0
23.73740291595459,459.0
23.741094827651978,461.0
23.745522022247314,460.0
23.785096883773804,460.0
23.788793087005615,462.0
23.792683124542236,462.0
23.796885013580322,462.0
23.80051612854004,462.0
23.804112911224365,462.0
23.80849599838257,463.0
23.836900234222412,463.0
23.840519905090332,463.0
23.843909978866577,463.0
23.847229957580566,463.0
23.851722955703735,463.0
23.879950046539307,462.0
23.8835608959198,461.0
23.887938022613525,460.0
23.912360906600952,459.0
23.91603398323059,459.0
23.92122197151184,457.0
23.944916009902954,457.0
23.948612928390503,458.0
23.952980995178223,459.0
23.977587938308716,459.0
23.981405019760132,459.0
23.98551893234253,458.0
23.989938020706177,457.0
24.013625144958496,456.0
24.01728582382202,455.0
24.0209538936615,455.0
24.02533984184265,455.0
24.048223972320557,456.0
24.051913022994995,455.0
24.057443141937256,456.0
24.086140871047974,457.0
24.08978796005249,458.0
24.093486070632935,460.0
24.097829818725586,460.0
24.119918823242188,460.0
24.123581886291504,459.0
24.12883996963501,460.0
24.152775049209595,459.0
24.156243085861206,458.0
24.159656047821045,457.0
24.18620800971985,456.0
24.189819812774658,455.0
24.193423986434937,455.0
24.197743892669678,454.0
24.219878911972046,454.0
24.223387956619263,454.0
24.227756023406982,455.0
24.26325511932373,455.0
24.26642894744873,456.0
24.269859075546265,457.0
24.273282051086426,458.0
24.276767015457153,459.0
24.29661798477173,461.0
24.299926042556763,463.0
24.303117036819458,464.0
24.365813970565796,466.0
24.368990898132324,468.0
24.372547149658203,470.0
24.375804901123047,474.0
24.379043102264404,483.0
24.42064595222473,499.0
24.423922061920166,524.0
24.427277088165283,559.0
24.431643962860107,603.0
24.435395002365112,654.0
24.476788997650146,707.0
24.476952075958252,761.0
24.480440139770508,808.0
24.48421597480774,847.0
24.494484901428223,875.0
24.498076915740967,887.0
24.501731157302856,885.0
24.50531315803528,868.0
24.508875131607056,840.0
24.513253927230835,802.0
24.531153917312622,758.0
24.53479814529419,711.0
24.53923511505127,666.0
24.563719987869263,622.0
24.56737518310547,584.0
24.571764945983887,553.0
24.596166849136353,531.0
24.599856853485107,517.0
24.604265928268433,510.0
24.6286678314209,509.0
24.632331132888794,511.0
24.63594698905945,513.0
24.640326976776123,517.0
24.684733867645264,520.0
24.68834900856018,523.0
24.691946029663086,525.0
24.695525884628296,527.0
24.699055910110474,527.0
24.70345187187195,524.0
24.721221923828125,522.0
24.724915027618408,519.0
24.729284048080444,518.0
24.765553951263428,515.0
24.768784999847412,514.0
24.77231001853943,512.0
24.77567219734192,510.0
24.780027866363525,505.0
24.80247712135315,501.0
24.806102991104126,497.0
24.810524940490723,494.0
24.83507800102234,491.0
24.8387131690979,488.0
24.8423490524292,484.0
24.84681797027588,480.0
24.86916995048523,476.0
24.87242293357849,472.0
24.876888036727905,466.0
24.88630199432373,462.0
24.890713930130005,458.0
24.917402982711792,455.0
24.92103910446167,453.0
24.925423860549927,451.0
24.950008153915405,449.0
24.953702926635742,448.0
24.957084894180298,448.0
24.987787008285522,448.0
24.99123501777649,448.0
24.994900941848755,449.0
24.999256134033203,450.0
25.0224609375,452.0
25.026262044906616,454.0
25.03063702583313,455.0
25.03612184524536,456.0
25.065510034561157,456.0
25.069994926452637,456.0
25.070158004760742,457.0
25.07449698448181,458.0
25.11764621734619,459.0
25.12129521369934,460.0
25.125401973724365,461.0
25.128989934921265,461.0
25.13267207145691,459.0
25.137046098709106,457.0
25.160633087158203,454.0
25.169898986816406,452.0
25.173552989959717,451.0
25.177934169769287,450.0
25.202391147613525,449.0
25.206058025360107,449.0
25.21064305305481,449.0
25.23493790626526,449.0
25.238582134246826,449.0
25.242985010147095,449.0
25.287225008010864,449.0
25.29075789451599,449.0
25.29430103302002,451.0
25.29786491394043,451.0
25.30141806602478,451.0
25.30582880973816,451.0
25.32380485534668,451.0
25.32744812965393,451.0
25.331236124038696,452.0
25.33561396598816,452.0
25.357401132583618,452.0
25.36269211769104,454.0
25.365980863571167,453.0
25.38992404937744,455.0
25.393606901168823,456.0
25.39797306060791,455.0
25.42239999771118,456.0
25.42594885826111,456.0
25.431137084960938,457.0
25.454941034317017,457.0
25.458399057388306,457.0
25.462766885757446,457.0
25.487383127212524,456.0
25.491068840026855,456.0
25.494723081588745,456.0
25.499210119247437,455.0
25.512539863586426,456.0
25.517030000686646,456.0
25.54380702972412,456.0
25.547428846359253,457.0
25.551565170288086,457.0
25.555957078933716,456.0
25.58621120452881,458.0
25.58981704711914,463.0
25.593517065048218,475.0
25.59872317314148,495.0
25.619956970214844,525.0
25.623646020889282,565.0
25.627983808517456,613.0
25.65248703956604,665.0
25.656147956848145,718.0
25.661098957061768,768.0
25.666332960128784,812.0
25.694126844406128,844.0
25.697407007217407,864.0
25.703970193862915,869.0
25.704134941101074,859.0
25.727887868881226,838.0
25.73109793663025,806.0
25.73431897163391,768.0
25.764176845550537,725.0
25.7675940990448,680.0
25.770848035812378,638.0
25.774538040161133,598.0
25.79024600982666,565.0
25.793559074401855,538.0
25.821980953216553,518.0
25.825271129608154,505.0
25.828688859939575,497.0
25.88568091392517,494.0
25.889230012893677,496.0
25.89305090904236,496.0
25.925506114959717,499.0
25.92872190475464,502.0
25.93206810951233,505.0
25.93551802635193,508.0
25.935691118240356,511.0
25.938892126083374,514.0
25.942224979400635,516.0
25.945470094680786,516.0
25.949199199676514,516.0
25.95413303375244,518.0
25.957844018936157,518.0
25.994372129440308,518.0
25.997545957565308,515.0
26.000670909881592,511.0
26.004356145858765,506.0
26.044543981552124,500.0
26.047831058502197,495.0
26.051121950149536,488.0
26.054375886917114,482.0
26.057729959487915,476.0
26.09313201904297,470.0
26.09648108482361,464.0
26.100502967834473,458.0
26.103798151016235,451.0
26.107950925827026,446.0
26.11900496482849,442.0
26.122765064239502,440.0
26.13566017150879,437.0
26.139014959335327,436.0
26.188071966171265,436.0
26.189183950424194,439.0
26.192943811416626,441.0
26.206515073776245,443.0
26.209933042526245,446.0
26.213019847869873,450.0
26.216774940490723,454.0
26.230405807495117,458.0
26.23369812965393,461.0
26.28320002555847,463.0
26.33088994026184,464.0
26.334041833877563,465.0
26.33789300918579,466.0
26.341645002365112,466.0
26.345454216003418,465.0
26.377262830734253,465.0
26.401921033859253,465.0
26.40518879890442,463.0
26.411877870559692,463.0
26.412045001983643,462.0
26.415247201919556,460.0
26.41861605644226,459.0
26.421876907348633,457.0
26.425271034240723,454.0
26.429017782211304,452.0
26.43237614631653,452.0
26.435642957687378,450.0
26.438843965530396,449.0
26.442172050476074,448.0
26.483166933059692,448.0
26.486459970474243,448.0
26.489860773086548,448.0
26.493119955062866,448.0
26.496392011642456,447.0
26.499748945236206,446.0
26.520297050476074,447.0
26.52349281311035,449.0
26.526731967926025,450.0
26.552760124206543,450.0
26.556169986724854,452.0
26.559481143951416,452.0
26.56301498413086,451.0
26.586688995361328,451.0
26.59006690979004,452.0
26.593592166900635,451.0
26.619295120239258,452.0
26.622524976730347,452.0
26.625951051712036,451.0
26.672005891799927,451.0
26.67525601387024,452.0
26.67859411239624,453.0
26.681874990463257,454.0
26.685012102127075,455.0
26.72807288169861,455.0
26.731164932250977,457.0
26.734381198883057,458.0
26.737695932388306,459.0
26.740999937057495,458.0
26.744237184524536,458.0
26.78570294380188,456.0
26.789116859436035,457.0
26.792465925216675,457.0
26.795746088027954,458.0
26.799081087112427,461.0
26.8023738861084,468.0
26.804654836654663,482.0
26.808080911636353,506.0
26.82169818878174,538.0
26.855759143829346,580.0
26.859008073806763,630.0
26.862385034561157,685.0
26.865631103515625,739.0
26.910699129104614,790.0
26.91401505470276,834.0
26.917337894439697,867.0
26.920997858047485,887.0
26.92428493499756,892.0
26.96690011024475,883.0
26.970053911209106,862.0
26.973246097564697,829.0
26.976626873016357,788.0
26.97978901863098,745.0
27.03695583343506,700.0
27.03712010383606,657.0
27.040231943130493,620.0
27.043391942977905,588.0
27.046778917312622,563.0
27.05029296875,545.0
27.05348300933838,536.0
27.056691884994507,531.0
27.120845079421997,532.0
27.12401008605957,535.0
27.127408981323242,539.0
27.131628036499023,542.0
27.13545799255371,542.0
27.139191150665283,541.0
27.173256874084473,537.0
27.176486015319824,532.0
27.180376052856445,526.0
27.184165954589844,520.0
27.187944889068604,512.0
27.22442603111267,506.0
27.227570056915283,500.0
27.230962991714478,496.0
27.234405994415283,493.0
27.23805284500122,491.0
27.275702953338623,488.0
27.27897810935974,485.0
27.282193899154663,481.0
27.28553605079651,480.0
27.288952112197876,476.0
27.292341947555542,474.0
27.29669499397278,472.0
27.300554990768433,467.0
27.30431604385376,463.0
27.320443868637085,460.0
27.323601961135864,456.0
27.32696509361267,454.0
27.385662078857422,450.0
27.389064073562622,447.0
27.392499923706055,446.0
27.39599895477295,445.0
27.39930295944214,445.0
27.40275502204895,445.0
27.406095027923584,446.0
27.4093918800354,446.0
27.412686109542847,447.0
27.435288190841675,449.0
27.43864607810974,451.0
27.441954135894775,452.0
27.468175888061523,455.0
27.47164297103882,457.0
27.475048065185547,458.0
27.500447988510132,459.0
27.50390601158142,459.0
27.507269859313965,459.0
27.532973051071167,458.0
27.536468029022217,457.0
27.54015302658081,456.0
27.54358196258545,455.0
27.57185411453247,454.0
27.575278759002686,454.0
27.578752040863037,453.0
27.60543394088745,451.0
27.608920097351074,450.0
27.612464904785156,449.0
27.63919687271118,447.0
27.63937211036682,447.0
27.642692804336548,447.0
27.64606499671936,447.0
27.70578098297119,447.0
27.70916199684143,448.0
27.71245503425598,449.0
27.71560502052307,448.0
27.718927145004272,448.0
27.722934007644653,449.0
27.726464986801147,448.0
27.731685876846313,447.0
27.734972953796387,448.0
27.763252019882202,448.0
27.766525983810425,450.0
27.769829988479614,452.0
27.79529595375061,454.0
27.79871702194214,455.0
27.801984071731567,455.0
27.834460973739624,454.0
27.837652921676636,453.0
27.841154098510742,452.0
27.844407081604004,451.0
27.84773302078247,451.0
27.870532989501953,451.0
27.87398886680603,452.0
27.87731623649597,452.0
27.90307903289795,451.0
27.906455993652344,451.0
27.910120964050293,450.0
27.93670892715454,450.0
27.939918041229248,451.0
27.943073987960815,451.0
27.94627618789673,450.0
27.99075698852539,451.0
27.99399709701538,451.0
27.99726104736328,451.0
28.001644134521484,450.0
28.00506091117859,449.0
28.011677980422974,448.0
28.014981985092163,447.0
28.063245058059692,448.0
28.06663990020752,449.0
28.070476055145264,451.0
28.100627899169922,452.0
28.10404896736145,452.0
28.107943058013916,452.0
28.11177086830139,452.0
28.15308690071106,452.0
28.15423011779785,454.0
28.15757703781128,453.0
28.160955905914307,454.0
28.164378881454468,454.0
28.168174982070923,454.0
28.177963972091675,456.0
28.181288957595825,460.0
28.184725046157837,470.0
28.187982082366943,489.0
28.21182894706726,518.0
28.215171098709106,556.0
28.21851897239685,604.0
28.244405031204224,659.0
28.24772000312805,716.0
28.251342058181763,772.0
28.28441286087036,821.0
28.28459095954895,860.0
28.287758111953735,886.0
28.291572093963623,896.0
28.294902086257935,892.0
28.31685996055603,874.0
28.320255994796753,845.0
28.323585987091064,806.0
28.349246978759766,761.0
28.352677822113037,715.0
28.35606098175049,670.0
28.381776809692383,627.0
28.385198831558228,591.0
28.388440132141113,562.0
28.41426682472229,541.0
28.41763687133789,529.0
28.42107605934143,524.0
28.44923710823059,524.0
28.452484130859375,527.0
28.455748081207275,531.0
28.45905900001526,536.0
28.483130931854248,537.0
28.48581886291504,537.0
28.4893639087677,535.0
28.516561031341553,529.0
28.519933938980103,524.0
28.523151874542236,518.0
28.526479244232178,512.0
28.55051302909851,506.0
28.553964138031006,502.0
28.55818510055542,497.0
28.58952808380127,493.0
28.59271812438965,490.0
28.596707105636597,487.0
28.600484132766724,484.0
28.662142992019653,480.0
28.665332078933716,478.0
28.670412063598633,476.0
28.674171924591064,474.0
28.677996158599854,472.0
28.720707178115845,471.0
28.724050045013428,468.0
28.72723412513733,464.0
28.73051404953003,462.0
28.733876943588257,460.0
28.737295866012573,457.0
28.74170184135437,454.0
28.74541687965393,451.0
28.749199151992798,448.0
28.78320598602295,447.0
28.786489963531494,447.0
28.790442943572998,447.0
28.794030904769897,448.0
28.797860145568848,448.0
28.806233167648315,448.0
28.809888124465942,450.0
28.814393043518066,451.0
28.840147018432617,453.0
28.843399047851562,455.0
28.846779823303223,456.0
28.88638687133789,457.0
28.89005208015442,459.0
28.893712997436523,460.0
28.897284030914307,461.0
28.922441959381104,461.0
28.922610998153687,463.0
28.926100969314575,464.0
28.92987298965454,464.0
28.934351205825806,463.0
28.957458972930908,462.0
28.961107969284058,460.0
28.965451955795288,458.0
28.989943027496338,455.0
28.993653059005737,454.0
28.99799394607544,453.0
29.022505044937134,451.0
29.02613615989685,450.0
29.030489921569824,449.0
29.054245948791504,450.0
29.05799913406372,449.0
29.064029932022095,447.0
29.06768298149109,447.0
29.100852966308594,446.0
29.104036808013916,446.0
29.10723304748535,448.0
29.110947132110596,449.0
29.1144859790802,449.0
29.220818996429443,450.0
29.2239990234375,451.0
29.227405071258545,451.0
29.2307710647583,451.0
29.234022855758667,451.0
29.23766803741455,451.0
29.24175214767456,451.0
29.284206867218018,451.0
29.28775978088379,451.0
29.291822910308838,451.0
29.303679943084717,451.0
29.307451009750366,451.0
29.3110830783844,451.0
29.314698934555054,451.0
29.318224906921387,451.0
29.32179307937622,451.0
29.32547616958618,451.0
29.329108953475952,449.0
29.332823038101196,450.0
29.336352109909058,449.0
29.33996295928955,451.0
29.34432601928711,451.0
29.367417812347412,452.0
29.3711519241333,454.0
29.3747820854187,455.0
29.37917709350586,455.0
29.4012610912323,455.0
29.404903888702393,456.0
29.410159826278687,456.0
29.43370008468628,456.0
29.437269926071167,457.0
29.441605806350708,456.0
29.483856916427612,455.0
29.487446069717407,455.0
29.49110984802246,455.0
29.4946608543396,455.0
29.499000072479248,455.0
29.520023107528687,457.0
29.523669958114624,467.0
29.528056144714355,480.0
29.552473783493042,504.0
29.560276985168457,537.0
29.560440063476562,580.0
29.56421208381653,632.0
29.568846225738525,686.0
29.573285818099976,743.0
29.60374093055725,795.0
29.607503175735474,838.0
29.611248016357422,869.0
29.615650177001953,888.0
29.637467861175537,891.0
29.641112089157104,880.0
29.645419120788574,856.0
29.676779985427856,822.0
29.680011987686157,782.0
29.68309497833252,737.0
29.68808102607727,692.0
29.71241807937622,650.0
29.716112852096558,612.0
29.720600128173828,582.0
29.744942903518677,558.0
29.748650074005127,540.0
29.75219988822937,530.0
29.755438804626465,526.0
29.784957885742188,525.0
29.788737058639526,526.0
29.79236888885498,529.0
29.7968111038208,530.0
29.821380853652954,532.0
29.824934005737305,532.0
29.829341888427734,531.0
29.853775024414062,528.0
29.857414960861206,527.0
29.861732006072998,523.0
29.886190176010132,517.0
29.889995098114014,513.0
29.89475417137146,510.0
29.899338006973267,505.0
29.926220178604126,503.0
29.92984914779663,500.0
29.934158086776733,497.0
29.958702087402344,493.0
29.962356090545654,490.0
29.96601915359497,488.0
29.96927309036255,485.0
30.021913051605225,481.0
30.025262117385864,478.0
30.028747081756592,474.0
30.032022953033447,469.0
30.035483837127686,464.0
30.038717031478882,460.0
30.04202699661255,456.0
30.08397102355957,455.0
30.08762001991272,455.0
30.091311931610107,454.0
30.095097064971924,455.0
30.098648071289062,455.0
30.10299301147461,455.0
30.121237993240356,455.0
30.124907970428467,457.0
30.129262924194336,458.0
30.15372586250305,458.0
30.15739917755127,459.0
30.161705017089844,460.0
30.186246871948242,461.0
30.193495988845825,461.0
30.19365882873535,462.0
30.19781994819641,462.0
30.237632989883423,463.0
30.241212844848633,464.0
30.244900941848755,464.0
30.248478889465332,464.0
30.25286293029785,463.0
30.273698091506958,463.0
30.277028799057007,464.0
30.28080105781555,463.0
30.29029107093811,463.0
30.293709993362427,463.0
30.322612047195435,463.0
30.326194047927856,463.0
30.33060097694397,462.0
30.38315200805664,460.0
30.386531114578247,459.0
30.38993215560913,457.0
30.393748998641968,456.0
30.39748787879944,455.0
30.401188135147095,453.0
30.40474510192871,453.0
30.40906596183777,452.0
30.42875909805298,452.0
30.43242907524109,452.0
30.43677806854248,451.0
30.46121096611023,451.0
30.464884996414185,450.0
30.469221830368042,450.0
30.493775844573975,449.0
30.49741291999817,450.0
30.501785039901733,449.0
30.51634192466736,448.0
30.520823001861572,448.0
30.547470092773438,450.0
30.55121111869812,451.0
30.55495810508728,452.0
30.559314012527466,452.0
30.58170509338379,452.0
30.58505392074585,453.0
30.58851194381714,453.0
30.634400129318237,452.0
30.637768983840942,451.0
30.641241788864136,451.0
30.644629955291748,451.0
30.64791202545166,451.0
30.651322841644287,451.0
30.69533395767212,451.0
30.69891619682312,451.0
30.70254111289978,453.0
30.70634913444519,455.0
30.70987606048584,456.0
30.71422791481018,457.0
30.73273491859436,459.0
30.736299991607666,460.0
30.740679025650024,460.0
30.76499104499817,460.0
30.768699884414673,461.0
30.77313804626465,461.0
30.803846836090088,461.0
30.807403087615967,461.0
30.811155080795288,461.0
30.81489586830139,461.0
30.841231107711792,460.0
30.841418981552124,461.0
30.844937086105347,461.0
30.84934401512146,463.0
30.877506017684937,464.0
30.881121158599854,472.0
30.88477110862732,486.0
30.888790130615234,508.0
30.911235094070435,540.0
30.914754152297974,583.0
30.919142961502075,635.0
30.943703174591064,692.0
30.94726300239563,749.0
30.95294213294983,804.0
30.985307931900024,850.0
30.988778114318848,885.0
30.99217700958252,907.0
30.995919227600098,915.0
31.000396013259888,907.0
31.003801107406616,888.0
31.032228231430054,857.0
31.036755084991455,818.0
31.040353059768677,773.0
31.044697046279907,725.0
31.06748914718628,680.0
31.071131944656372,639.0
31.07554578781128,604.0
31.09919309616089,577.0
31.103000164031982,557.0
31.106796979904175,544.0
31.11338496208191,538.0
31.14251184463501,538.0
31.146193981170654,540.0
31.151384115219116,543.0
31.17503595352173,544.0
31.178611040115356,546.0
31.18296718597412,544.0
31.20778203010559,541.0
31.21119999885559,536.0
31.214436054229736,530.0
31.21889305114746,525.0
31.242446184158325,520.0
31.246280908584595,515.0
31.249881982803345,510.0
31.254523992538452,505.0
31.289800882339478,502.0
31.293489933013916,497.0
31.297311067581177,495.0
31.3006010055542,492.0
31.32384991645813,489.0
31.327466011047363,487.0
31.33174705505371,486.0
31.356348991394043,484.0
31.359905004501343,482.0
31.363564014434814,480.0
31.367918014526367,478.0
31.389991998672485,476.0
31.393656015396118,473.0
31.397156238555908,470.0
31.422473907470703,467.0
31.425988912582397,465.0
31.430387020111084,463.0
31.45502495765686,460.0
31.458649158477783,459.0
31.46683692932129,458.0
31.467000007629395,457.0
31.488698959350586,458.0
31.492366075515747,459.0
31.496737003326416,459.0
31.548161029815674,460.0
31.551512002944946,459.0
31.554802894592285,460.0
31.55856704711914,460.0
31.59810781478882,460.0
31.601546049118042,460.0
31.605462074279785,459.0
31.60921287536621,458.0
31.613092184066772,457.0
31.61789608001709,456.0
31.621548175811768,455.0
31.62587594985962,455.0
31.653728008270264,455.0
31.657472133636475,456.0
31.661174058914185,457.0
31.66471290588379,457.0
31.66904592514038,455.0
31.688710927963257,455.0
31.69235110282898,455.0
31.69674301147461,453.0
31.721240997314453,451.0
31.724884033203125,451.0
31.73011612892151,449.0
31.754038095474243,448.0
31.757455825805664,448.0
31.76095485687256,449.0
31.766547918319702,448.0
31.769917011260986,448.0
31.798057079315186,449.0
31.801734924316406,449.0
31.8060941696167,450.0
31.84077501296997,450.0
31.84425187110901,452.0
31.84809398651123,452.0
31.889437913894653,455.0
31.892802000045776,455.0
31.89659810066223,458.0
31.900449991226196,460.0
31.904320001602173,461.0
31.90809917449951,462.0
31.92498517036438,462.0
31.928616046905518,462.0
31.932313919067383,462.0
31.937515020370483,461.0
31.95876407623291,461.0
31.96238112449646,461.0
31.966711044311523,460.0
31.99121594429016,461.0
31.99526882171631,462.0
31.9996018409729,461.0
32.02498507499695,460.0
32.02909588813782,457.0
32.03372812271118,455.0
32.038443088531494,453.0
32.06512498855591,452.0
32.06872296333313,452.0
32.07313108444214,451.0
32.097508907318115,448.0
32.101150035858154,447.0
32.10557222366333,446.0
32.10573601722717,445.0
32.133076906204224,446.0
32.13632321357727,446.0
32.20325779914856,447.0
32.206620931625366,448.0
32.20998406410217,450.0
32.21328806877136,452.0
32.2168710231781,453.0
32.22061109542847,454.0
32.22389006614685,455.0
32.227193117141724,456.0
32.23871207237244,455.0
32.24240803718567,455.0
32.246050119400024,460.0
32.25125002861023,470.0
32.2725031375885,489.0
32.276145935058594,518.0
32.28053092956543,559.0
32.30496597290039,608.0
32.30862998962402,664.0
32.31227707862854,722.0
32.31679010391235,779.0
32.3387188911438,830.0
32.34239482879639,871.0
32.34673476219177,899.0
32.371262073516846,912.0
32.374963998794556,909.0
32.37932586669922,892.0
32.40744996070862,861.0
32.411165952682495,821.0
32.414801836013794,774.0
32.41917014122009,723.0
32.47712683677673,674.0
32.48028588294983,629.0
32.48375606536865,590.0
32.48708510398865,559.0
32.490386962890625,536.0
32.49436807632446,523.0
32.531917095184326,516.0
32.535118103027344,516.0
32.53855800628662,519.0
32.54178595542908,521.0
32.54512000083923,524.0
32.548377990722656,526.0
32.552772998809814,524.0
32.57127404212952,521.0
32.574934005737305,518.0
32.57933688163757,513.0
32.603703022003174,508.0
32.607348918914795,502.0
32.611690044403076,496.0
32.639951944351196,492.0
32.64362597465515,487.0
32.64729595184326,484.0
32.651684045791626,482.0
32.673712968826294,479.0
32.67736196517944,477.0
32.681694984436035,476.0
32.718395948410034,474.0
32.72152400016785,472.0
32.72486090660095,470.0
32.728079080581665,467.0
32.73117113113403,464.0
32.85653614997864,462.0
32.85967302322388,459.0
32.85986590385437,455.0
32.86327815055847,452.0
32.86692500114441,450.0
32.87063407897949,447.0
32.90586018562317,444.0
32.90910482406616,444.0
32.91225600242615,443.0
32.915555000305176,444.0
32.91927886009216,445.0
32.923056840896606,447.0
32.92672109603882,449.0
32.93061900138855,449.0
32.94874811172485,449.0
32.95248317718506,450.0
32.956644773483276,449.0
32.9603488445282,450.0
32.964012145996094,449.0
32.9677529335022,448.0
32.97148895263672,449.0
32.975244998931885,449.0
32.97903323173523,448.0
32.98264503479004,448.0
32.986172914505005,448.0
32.99054002761841,447.0
33.01004600524902,448.0
33.01389694213867,449.0
33.01846194267273,449.0
33.02375817298889,449.0
33.08412289619446,449.0
33.087666034698486,448.0
33.09141993522644,448.0
33.09514093399048,448.0
33.09885382652283,447.0
33.102439880371094,447.0
33.106801986694336,446.0
33.12508177757263,446.0
33.12867617607117,446.0
33.132996797561646,445.0
33.157525062561035,444.0
33.161231994628906,443.0
33.161404848098755,443.0
33.16557002067566,444.0
33.19013500213623,445.0
33.193278074264526,447.0
33.19641304016113,448.0
33.22960114479065,449.0
33.23290705680847,450.0
33.236143827438354,452.0
33.2393479347229,453.0
33.284485816955566,451.0
33.28774619102478,451.0
33.29093408584595,452.0
33.294517993927,453.0
33.29829001426697,453.0
33.301942110061646,453.0
33.32435202598572,454.0
33.327609062194824,455.0
33.33179593086243,455.0
33.42876696586609,454.0
33.45891094207764,452.0
33.462510108947754,451.0
33.46612501144409,449.0
33.47361421585083,447.0
33.473796129226685,447.0
33.477412939071655,446.0
33.48115682601929,446.0
33.484960079193115,446.0
33.488693952560425,446.0
33.49246788024902,446.0
33.49618196487427,446.0
33.499895095825195,447.0
33.50365495681763,448.0
33.507758140563965,448.0
33.51185417175293,448.0
33.51551604270935,449.0
33.519062995910645,450.0
33.52351689338684,450.0
33.5438768863678,452.0
33.54971694946289,452.0
33.55301308631897,452.0
33.57763195037842,453.0
33.58130097389221,454.0
33.5850830078125,456.0
33.59028601646423,460.0
33.611231088638306,470.0
33.61487889289856,488.0
33.61932706832886,516.0
33.64374613761902,555.0
33.64741611480713,603.0
33.65177607536316,659.0
33.65517282485962,716.0
33.684526205062866,771.0
33.68879318237305,820.0
33.692487955093384,858.0
33.69714689254761,881.0
33.719980001449585,889.0
33.723652839660645,882.0
33.728057861328125,860.0
33.75245499610901,827.0
33.75568103790283,787.0
33.75945591926575,740.0
33.769153118133545,692.0
33.84086990356445,644.0
33.84420108795166,602.0
33.847994804382324,567.0
33.89197278022766,539.0
33.895289182662964,519.0
33.89853382110596,507.0
33.90184187889099,502.0
33.9052050113678,502.0
33.90922498703003,505.0
33.912943840026855,510.0
33.91668105125427,515.0
33.92055606842041,519.0
33.95326805114746,522.0
33.95653295516968,521.0
33.959737062454224,519.0
33.96307110786438,516.0
33.96619701385498,512.0
33.96979212760925,508.0
33.97296905517578,504.0
34.02079486846924,500.0
34.02516984939575,497.0
34.028939962387085,494.0
34.03270721435547,493.0
34.03646397590637,491.0
34.04392194747925,488.0
34.04744505882263,485.0
34.04761290550232,482.0
34.05191993713379,478.0
34.080113887786865,473.0
34.0836181640625,468.0
34.087323904037476,464.0
34.091739892959595,460.0
34.11371088027954,455.0
34.11738181114197,451.0
34.12178301811218,447.0
34.14621686935425,443.0
34.1498749256134,441.0
34.15424203872681,440.0
34.17872405052185,439.0
34.18238806724548,439.0
34.18600392341614,439.0
34.190351247787476,440.0
34.212483167648315,443.0
34.2161500453949,446.0
34.22054600715637,447.0
34.24501299858093,449.0
34.24862098693848,450.0
34.25221085548401,451.0
34.25666689872742,450.0
34.329591035842896,451.0
34.33279299736023,452.0
34.33625912666321,452.0
34.33956003189087,452.0
34.34290099143982,452.0
34.34677600860596,452.0
34.379782915115356,452.0
34.38332009315491,452.0
34.38695001602173,451.0
34.39058589935303,451.0
34.39422106742859,450.0
34.397753953933716,449.0
34.401329040527344,448.0
34.405718088150024,447.0
34.423733949661255,447.0
34.427396059036255,447.0
34.43107008934021,447.0
34.435417890548706,446.0
34.46005988121033,448.0
34.46370315551758,448.0
34.468043088912964,449.0
34.49248790740967,450.0
34.496134996414185,451.0
34.50134611129761,452.0
34.52500796318054,453.0
34.528635025024414,454.0
34.53233098983765,455.0
34.53670406341553,455.0
34.58314800262451,455.0
34.58669996261597,455.0
34.59000086784363,453.0
34.59328579902649,453.0
34.59696006774902,453.0
34.6012921333313,453.0
34.621224880218506,454.0
34.62487602233887,454.0
34.629292011260986,454.0
34.65377998352051,452.0
34.657394886016846,451.0
34.665409088134766,451.0
34.68745803833008,451.0
34.68763709068298,450.0
34.69132590293884,449.0
34.69468593597412,448.0
34.76337480545044,448.0
34.766507148742676,447.0
34.7697229385376,447.0
34.77308011054993,446.0
34.77641201019287,447.0
34.78046488761902,447.0
34.784245014190674,447.0
34.788007974624634,447.0
34.82460594177246,448.0
34.82777714729309,449.0
34.83095598220825,449.0
34.834590911865234,450.0
34.83806276321411,450.0
34.841806173324585,450.0
34.8845739364624,451.0
34.88781118392944,451.0
34.8917019367218,452.0
34.89555788040161,451.0
34.93444108963013,450.0
34.93785500526428,450.0
34.94163513183594,452.0
34.94531202316284,456.0
34.94910788536072,468.0
34.95272612571716,488.0
34.95630502700806,521.0
34.96071815490723,563.0
34.983062982559204,615.0
34.98686099052429,674.0
34.991737842559814,732.0
34.9950749874115,785.0
35.02377390861511,830.0
35.02747178077698,862.0
35.031810998916626,879.0
35.05625915527344,882.0
35.05974292755127,870.0
35.06406497955322,846.0
35.08803415298462,811.0
35.088196992874146,769.0
35.091513872146606,723.0
35.09488105773926,675.0
35.12125587463379,628.0
35.12489199638367,588.0
35.1301109790802,553.0
35.184409856796265,527.0
35.18782114982605,508.0
35.19173502922058,499.0
35.19555306434631,496.0
35.201677083969116,497.0
35.20503091812134,502.0
35.208418130874634,508.0
35.21277594566345,513.0
35.217129945755005,517.0
35.24388003349304,519.0
35.24743103981018,521.0
35.25180196762085,520.0
35.2762451171875,519.0
35.27992916107178,516.0
35.28429102897644,514.0
35.308837890625,510.0
35.312421798706055,506.0
35.31617307662964,504.0
35.32047700881958,501.0
35.35779786109924,500.0
35.36142587661743,497.0
35.365100145339966,497.0
35.36866593360901,495.0
35.37306189537048,491.0
35.39304184913635,486.0
35.39672493934631,481.0
35.401246070861816,476.0
35.40661001205444,470.0
35.43249797821045,464.0
35.43615388870239,460.0
35.44053506851196,456.0
35.48395299911499,452.0
35.487669944763184,451.0
35.49132013320923,449.0
35.49454379081726,449.0
35.49785804748535,449.0
35.519108057022095,448.0
35.522554874420166,449.0
35.52626895904541,451.0
35.53062987327576,451.0
35.55372405052185,453.0
35.55738711357117,454.0
35.561075925827026,455.0
35.56565499305725,456.0
35.59025692939758,457.0
35.59378504753113,459.0
35.59704613685608,459.0
35.62253999710083,459.0
35.62619709968567,459.0
35.63064503669739,460.0
35.655001163482666,460.0
35.65866494178772,461.0
35.6630699634552,461.0
35.670008182525635,460.0
35.67456412315369,461.0
35.70072913169861,460.0
35.70441508293152,460.0
35.711349964141846,458.0
35.716753005981445,457.0
35.742777824401855,457.0
35.74620485305786,457.0
35.74977207183838,457.0
35.75424790382385,455.0
35.78665804862976,455.0
35.79006385803223,453.0
35.79381203651428,452.0
35.79819393157959,451.0
35.82060503959656,449.0
35.8238890171051,449.0
35.82925295829773,448.0
35.854095220565796,447.0
35.857595920562744,446.0
35.861977100372314,448.0
35.886242151260376,447.0
35.88991379737854,447.0
35.89507699012756,447.0
35.91874098777771,448.0
35.92243695259094,448.0
35.9268479347229,449.0
35.95156192779541,450.0
35.95530915260315,452.0
35.959364891052246,452.0
35.963051080703735,452.0
35.96739196777344,453.0
35.996663093566895,455.0
36.00006699562073,455.0
36.00382113456726,455.0
36.007014989852905,456.0
36.03136682510376,459.0
36.03499698638916,461.0
36.039440870285034,462.0
36.08537697792053,463.0
36.08899521827698,464.0
36.09347891807556,465.0
36.09790277481079,467.0
36.12433886528015,469.0
36.12451696395874,472.0
36.124680042266846,474.0
36.12773609161377,477.0
36.13223099708557,480.0
36.1575129032135,482.0
36.16121506690979,483.0
36.16482210159302,486.0
36.17000102996826,487.0
36.19128918647766,487.0
36.19492292404175,486.0
36.1993191242218,484.0
36.22376799583435,483.0
36.227442026138306,480.0
36.23181486129761,480.0
36.265779972076416,481.0
36.26901197433472,492.0
36.27288818359375,512.0
36.27687406539917,543.0
36.28066301345825,584.0
36.29956793785095,633.0
36.30299711227417,686.0
36.306800842285156,738.0
36.34182596206665,784.0
36.34494590759277,821.0
36.348153829574585,848.0
36.351808071136475,861.0
36.35556697845459,857.0
36.39954209327698,843.0
36.40277099609375,816.0
36.40615916252136,779.0
36.40938591957092,737.0
36.41263699531555,691.0
36.45581388473511,645.0
36.459028005599976,604.0
36.462233781814575,566.0
36.465502977371216,534.0
36.468666791915894,510.0
36.471898794174194,493.0
36.51349902153015,483.0
36.51643109321594,480.0
36.520318031311035,480.0
36.52349591255188,483.0
36.52673316001892,487.0
36.53003692626953,490.0
36.578328132629395,496.0
36.58152198791504,500.0
36.584747076034546,505.0
36.58815002441406,509.0
36.59457516670227,512.0
36.59770703315735,515.0
36.59788799285889,518.0
36.637022972106934,522.0
36.640681982040405,523.0
36.678565979003906,523.0
36.68227195739746,522.0
36.6855890750885,520.0
36.689520835876465,517.0
36.69329905509949,513.0
36.696900844573975,508.0
36.700547218322754,501.0
36.70415997505188,496.0
36.70847010612488,490.0
36.7430579662323,484.0
36.74630808830261,480.0
36.74981880187988,475.0
36.754680156707764,471.0
36.77797722816467,466.0
36.781277894973755,463.0
36.78446698188782,459.0
36.812597036361694,455.0
36.81278586387634,452.0
36.81630206108093,450.0
36.81978797912598,450.0
36.82454204559326,451.0
36.84625196456909,452.0
36.84993600845337,455.0
36.8551549911499,455.0
36.87876892089844,457.0
36.8824200630188,460.0
36.88811802864075,464.0
36.91128206253052,467.0
36.915130853652954,472.0
36.91943097114563,475.0
36.943897008895874,477.0
36.947296142578125,478.0
36.95169115066528,478.0
36.9862699508667,476.0
36.989782094955444,476.0
36.99344801902771,473.0
36.997081995010376,472.0
37.001384019851685,468.0
37.02146315574646,465.0
37.02495098114014,462.0
37.029425859451294,460.0
37.05387592315674,457.0
37.057416915893555,455.0
37.06112790107727,451.0
37.06539702415466,451.0
37.087570905685425,451.0
37.09119892120361,450.0
37.09552597999573,451.0
37.12003302574158,451.0
37.123661041259766,451.0
37.127983808517456,453.0
37.15249300003052,454.0
37.15603995323181,457.0
37.160441875457764,457.0
37.18509483337402,458.0
37.188673973083496,459.0
37.19299507141113,459.0
37.21752190589905,457.0
37.2211639881134,458.0
37.229203939437866,457.0
37.25119113922119,457.0
37.25136423110962,457.0
37.25513505935669,457.0
37.259512186050415,457.0
37.31270098686218,457.0
37.316319942474365,455.0
37.31989312171936,455.0
37.323710918426514,453.0
37.32732176780701,451.0
37.330875873565674,449.0
37.335922956466675,448.0
37.39709687232971,446.0
37.40027904510498,447.0
37.403780937194824,449.0
37.407066822052,452.0
37.41043519973755,455.0
37.41433095932007,458.0
37.44898009300232,460.0
37.45257496833801,463.0
37.45616602897644,464.0
37.46364188194275,467.0
37.46380400657654,468.0
37.467180013656616,468.0
37.47070097923279,468.0
37.4743070602417,467.0
37.47865080833435,468.0
37.50128412246704,472.0
37.50495910644531,486.0
37.509326219558716,509.0
37.53376007080078,543.0
37.537429094314575,590.0
37.5407350063324,644.0
37.58416414260864,704.0
37.58771514892578,762.0
37.591339111328125,816.0
37.59488105773926,860.0
37.599278926849365,890.0
37.62000894546509,904.0
37.62364196777344,904.0
37.62735104560852,888.0
37.63173198699951,860.0
37.6554000377655,822.0
37.658751010894775,776.0
37.66209888458252,727.0
37.66589117050171,676.0
37.706998109817505,628.0
37.71032977104187,587.0
37.7136390209198,552.0
37.71694588661194,526.0
37.72026085853577,508.0
37.75767803192139,499.0
37.760998010635376,499.0
37.76467800140381,504.0
37.76825714111328,511.0
37.77261710166931,519.0
37.79379105567932,526.0
37.79741597175598,532.0
37.80178904533386,534.0
37.82644724845886,533.0
37.829988956451416,529.0
37.834370136260986,524.0
37.885241985321045,517.0
37.888771057128906,511.0
37.89600682258606,504.0
37.89954686164856,499.0
37.89971303939819,495.0
37.90316390991211,492.0
37.90764284133911,489.0
37.918729066848755,487.0
37.92224407196045,486.0
37.926586866378784,483.0
37.9504508972168,481.0
37.95425009727478,478.0
37.95806288719177,474.0
37.965404987335205,469.0
37.99441409111023,465.0
37.998780965805054,461.0
38.00248098373413,456.0
38.006824016571045,449.0
38.03001594543457,443.0
38.03389811515808,437.0
38.03836393356323,432.0
38.065064907073975,429.0
38.068822145462036,428.0
38.07694482803345,427.0
38.077106952667236,429.0
38.098742961883545,433.0
38.102293968200684,438.0
38.106659173965454,442.0
38.13210391998291,446.0
38.135672092437744,450.0
38.14004993438721,454.0
38.18642783164978,456.0
38.18998980522156,458.0
38.19401407241821,460.0
38.19766616821289,464.0
38.20122003555298,465.0
38.20556402206421,465.0
38.22373414039612,465.0
38.22728395462036,465.0
38.230557918548584,465.0
38.255587100982666,463.0
38.25896191596985,461.0
38.26307511329651,459.0
38.27279496192932,456.0
38.27295684814453,456.0
38.27627182006836,455.0
38.3245849609375,454.0
38.32785201072693,452.0
38.331172943115234,451.0
38.33457803726196,449.0
38.33833694458008,448.0
38.37967896461487,447.0
38.38300180435181,446.0
38.38681507110596,446.0
38.4042329788208,448.0
38.407509088516235,450.0
38.410691022872925,451.0
38.413957834243774,452.0
38.41713786125183,452.0
38.523364782333374,455.0
38.52657413482666,457.0
38.52976417541504,458.0
38.533108949661255,459.0
38.536316871643066,460.0
38.53945803642273,462.0
38.54263615608215,462.0
38.60897207260132,460.0
38.6127450466156,459.0
38.61290907859802,458.0
38.61655807495117,457.0
38.620323181152344,455.0
38.624048948287964,455.0
38.62781119346619,457.0
38.63157415390015,458.0
38.63531184196472,459.0
38.63913607597351,460.0
38.64273405075073,460.0
38.646666049957275,462.0
38.651041984558105,464.0
38.65541410446167,465.0
38.68017578125,465.0
38.680338859558105,467.0
38.68052411079407,471.0
38.68408393859863,475.0
38.687628984451294,480.0
38.692018032073975,483.0
38.713773012161255,486.0
38.72100782394409,489.0
38.72117209434509,492.0
38.72544598579407,495.0
38.74766492843628,497.0
38.75171208381653,501.0
38.756091833114624,508.0
38.786869049072266,525.0
38.790446043014526,550.0
38.79403901100159,585.0
38.799251079559326,630.0
38.82145094871521,681.0
38.82496690750122,733.0
38.82934308052063,783.0
38.85379886627197,825.0
38.85745596885681,857.0
38.86259603500366,874.0
38.88928580284119,877.0
38.89303708076477,867.0
38.896838903427124,846.0
38.93690085411072,812.0
38.94037103652954,771.0
38.943804025650024,725.0
38.947092056274414,678.0
38.95037913322449,631.0
38.954009771347046,588.0
38.985196113586426,551.0
38.988900899887085,521.0
38.99256992340088,502.0
38.9961678981781,490.0
39.00055408477783,485.0
39.02208995819092,486.0
39.02566981315613,492.0
39.0300350189209,498.0
39.08442497253418,504.0
39.08780813217163,510.0
39.09158992767334,515.0
39.095277070999146,517.0
39.0989031791687,518.0
39.10249304771423,519.0
39.10686206817627,519.0
39.12528204917908,519.0
39.12899208068848,519.0
39.1327428817749,519.0
39.15908694267273,517.0
39.159300804138184,515.0
39.16255497932434,513.0
39.16698098182678,510.0
39.196128129959106,505.0
39.242061138153076,501.0
39.24533987045288,496.0
39.24879217147827,488.0
39.25210404396057,481.0
39.25586700439453,475.0
39.259438037872314,469.0
39.263203144073486,462.0
39.26703214645386,455.0
39.29374599456787,448.0
39.29753398895264,443.0
39.3012318611145,439.0
39.30497217178345,436.0
39.31012511253357,433.0
39.33776307106018,434.0
39.3412230014801,434.0
39.34485411643982,435.0
39.384254932403564,435.0
39.38441801071167,439.0
39.38812184333801,443.0
39.394989013671875,448.0
39.398712158203125,453.0
39.40234088897705,457.0
39.40673112869263,462.0
39.428807973861694,466.0
39.432470083236694,469.0
39.43683409690857,471.0
39.45759391784668,472.0
39.461798906326294,473.0
39.46613883972168,472.0
39.48932695388794,471.0
39.49280095100403,470.0
39.49612903594971,466.0
39.5226948261261,462.0
39.526288986206055,459.0
39.530638217926025,455.0
39.55505299568176,451.0
39.558682918548584,448.0
39.56233596801758,444.0
39.566704988479614,439.0
39.58834099769592,437.0
39.59197688102722,436.0
39.599122047424316,435.0
39.60252809524536,435.0
39.63128185272217,435.0
39.634970903396606,436.0
39.63927888870239,439.0
39.683979988098145,440.0
39.68768906593323,443.0
39.69106888771057,444.0
39.69432997703552,446.0
39.697587966918945,447.0
39.72007608413696,448.0
39.72370886802673,451.0
39.727396965026855,454.0
39.731831073760986,456.0
39.75378203392029,456.0
39.75739908218384,457.0
39.760964155197144,458.0
39.78626298904419,459.0
39.793198108673096,459.0
39.79676914215088,458.0
39.79727101325989,457.0
39.83823490142822,456.0
39.8415470123291,456.0
39.84513592720032,456.0
39.84875178337097,456.0
39.853127002716064,457.0
39.87378001213074,456.0
39.87744903564453,456.0
39.88118100166321,456.0
39.88558006286621,455.0
39.90441703796387,454.0
39.9088020324707,454.0
39.93631601333618,454.0
39.93995809555054,455.0
39.94360399246216,456.0
39.947957038879395,461.0
39.98398804664612,474.0
39.98759412765503,494.0
39.99128985404968,526.0
39.998672008514404,569.0
39.998836040496826,622.0
40.02005100250244,683.0
40.02373003959656,744.0
40.0281138420105,803.0
40.05000710487366,850.0
40.053711891174316,887.0
40.058258056640625,907.0
40.082566022872925,911.0
40.086244106292725,899.0
40.09055209159851,874.0
40.114336013793945,838.0
40.117801904678345,792.0
40.12114405632019,743.0
40.147547006607056,692.0
40.15120315551758,644.0
40.154852867126465,600.0
40.15924000740051,561.0
40.18130588531494,532.0
40.184975147247314,512.0
40.189369916915894,501.0
40.213839054107666,498.0
40.21750617027283,503.0
40.22112011909485,511.0
40.22550106048584,520.0
40.24753785133362,529.0
40.25158405303955,535.0
40.2562689781189,538.0
40.28588390350342,538.0
40.290374994277954,535.0
40.29399394989014,529.0
40.298319816589355,521.0
40.32139015197754,514.0
40.324990034103394,508.0
40.32935905456543,503.0
40.353825092315674,497.0
40.35744309425354,495.0
40.361809968948364,493.0
40.38706684112549,490.0
40.390673875808716,489.0
40.39509892463684,488.0
40.417845010757446,487.0
40.42128801345825,486.0
40.42940402030945,484.0
40.45281195640564,480.0
40.45297408103943,476.0
40.45643401145935,470.0
40.460790157318115,466.0
40.4775390625,461.0
40.481231927871704,456.0
40.485652923583984,453.0
40.50934290885925,451.0
40.51313400268555,449.0
40.52007508277893,448.0
40.524495124816895,446.0
40.530423164367676,447.0
40.5840220451355,447.0
40.587708950042725,447.0
40.591367959976196,449.0
40.5949809551239,448.0
40.599355936050415,449.0
40.62500190734863,450.0
40.62881302833557,451.0
40.63293218612671,452.0
40.64089918136597,454.0
40.64106202125549,456.0
40.66266703605652,459.0
40.666224002838135,460.0
40.66983914375305,462.0
40.674213886260986,463.0
40.682164907455444,465.0
40.71135902404785,465.0
40.7147331237793,466.0
40.718254804611206,465.0
40.74377393722534,465.0
40.74743890762329,465.0
40.75185012817383,465.0
40.77624988555908,464.0
40.77996587753296,465.0
40.78362011909485,465.0
40.787949085235596,465.0
40.81006217002869,465.0
40.81355595588684,465.0
40.816956996917725,465.0
40.8425350189209,464.0
40.84620118141174,463.0
40.84976887702942,461.0
40.85451793670654,459.0
40.884329080581665,457.0
40.88792395591736,455.0
40.89155101776123,455.0
40.89673185348511,454.0
40.91787505149841,453.0
40.921289920806885,454.0
40.92465901374817,452.0
40.95249700546265,451.0
40.956100940704346,451.0
40.96127104759216,450.0
40.985069036483765,450.0
40.98879384994507,451.0
40.99311399459839,451.0
41.016648054122925,451.0
41.01993703842163,451.0
41.02344799041748,451.0
41.03633689880371,451.0
41.040855169296265,452.0
41.06756401062012,451.0
41.07128286361694,450.0
41.0748291015625,452.0
41.080013036727905,453.0
41.11771488189697,453.0
41.12124800682068,454.0
41.12451410293579,454.0
41.12780690193176,453.0
41.13097596168518,453.0
41.15018010139465,452.0
41.15474987030029,451.0
41.15984582901001,451.0
41.189640045166016,450.0
41.2189838886261,453.0
41.219172954559326,462.0
41.21933603286743,480.0
41.222756147384644,510.0
41.22608804702759,552.0
41.22938013076782,606.0
41.252586126327515,666.0
41.25627589225769,727.0
41.26000094413757,785.0
41.28742003440857,835.0
41.28758406639099,872.0
41.29103684425354,896.0
41.29541516304016,901.0
41.30079007148743,892.0
41.329365968704224,868.0
41.33267784118652,833.0
41.336127042770386,790.0
41.36257600784302,741.0
41.366212129592896,692.0
41.370611906051636,644.0
41.39505195617676,603.0
41.39875888824463,566.0
41.402541160583496,539.0
41.407742977142334,520.0
41.429166078567505,510.0
41.43285512924194,508.0
41.43683886528015,511.0
41.44165515899658,518.0
41.51342487335205,527.0
41.51669788360596,534.0
41.5200560092926,538.0
41.52320098876953,539.0
41.526525020599365,537.0
41.52993893623352,531.0
41.53427600860596,525.0
41.53800702095032,516.0
41.54179787635803,509.0
41.57833290100098,502.0
41.58178687095642,496.0
41.58551287651062,491.0
41.62700605392456,488.0
41.63027310371399,487.0
41.63351893424988,485.0
41.636898040771484,484.0
41.64021897315979,483.0
41.643327951431274,483.0
41.64650082588196,480.0
41.685856103897095,478.0
41.68910217285156,475.0
41.69310688972473,471.0
41.69670820236206,468.0
41.70057511329651,463.0
41.716153144836426,459.0
41.71632099151611,455.0
41.71982789039612,451.0
41.72425079345703,449.0
41.783223152160645,445.0
41.78654599189758,443.0
41.79000806808472,442.0
41.79326891899109,441.0
41.79652690887451,439.0
41.800304889678955,440.0
41.803581953048706,439.0
41.80906915664673,440.0
41.81342697143555,442.0
41.840737104415894,444.0
41.84403681755066,447.0
41.847448110580444,451.0
41.873974084854126,451.0
41.8775749206543,454.0
41.881975173950195,455.0
41.90635085105896,456.0
41.90995001792908,456.0
41.91795802116394,457.0
41.91814088821411,457.0
41.939129114151,456.0
41.94237399101257,456.0
41.945866107940674,455.0
41.960434913635254,454.0
41.96375894546509,452.0
42.01210403442383,451.0
42.01544404029846,449.0
42.01871109008789,448.0
42.021925926208496,446.0
42.0251030921936,444.0
42.13091802597046,443.0
42.13403606414795,441.0
42.13722801208496,440.0
42.1406090259552,440.0
42.144017934799194,440.0
42.147982120513916,440.0
42.151901960372925,440.0
42.15551686286926,440.0
42.20998501777649,442.0
42.21357703208923,443.0
42.21730899810791,446.0
42.22079014778137,448.0
42.22429895401001,450.0
42.22776198387146,451.0
42.231449842453,452.0
42.23526883125305,452.0
42.239009141922,453.0
42.242774963378906,454.0
42.24782586097717,454.0
42.25109791755676,454.0
42.255598068237305,454.0
42.25900101661682,454.0
42.26246619224548,454.0
42.26582598686218,454.0
42.26910591125488,454.0
42.31612706184387,453.0
42.319140911102295,454.0
42.32258105278015,454.0
42.32599401473999,454.0
42.329282999038696,453.0
42.332555055618286,453.0
42.398175954818726,452.0
42.40148210525513,454.0
42.40535879135132,455.0
42.408884048461914,455.0
42.4124858379364,455.0
42.41691303253174,456.0
42.42302584648132,455.0
42.42655301094055,454.0
42.43022322654724,451.0
42.43455386161804,451.0
42.45558404922485,452.0
42.45889401435852,455.0
42.46222114562988,469.0
42.46555280685425,493.0
42.49027609825134,529.0
42.49378800392151,575.0
42.498276233673096,631.0
42.52272582054138,691.0
42.526268005371094,749.0
42.53060007095337,802.0
42.55425786972046,845.0
42.56091117858887,875.0
42.561092138290405,890.0
42.56431698799133,889.0
42.57298302650452,874.0
42.60205793380737,846.0
42.606388092041016,807.0
42.610090017318726,760.0
42.614519119262695,710.0
42.63757801055908,659.0
42.641185998916626,611.0
42.6455659866333,569.0
42.68446111679077,535.0
42.6878399848938,509.0
42.691636085510254,493.0
42.6954870223999,486.0
42.69989895820618,486.0
42.72508907318115,491.0
42.72871994972229,500.0
42.73309278488159,510.0
42.757566928863525,519.0
42.760838985443115,530.0
42.76424813270569,539.0
42.76835513114929,547.0
42.79130005836487,557.0
42.79495716094971,565.0
42.799325942993164,574.0
42.823951959609985,581.0
42.827569007873535,588.0
42.83199691772461,592.0
42.85630011558533,593.0
42.8599910736084,592.0
42.86325716972351,588.0
42.86660313606262,582.0
42.92792201042175,572.0
42.93107795715332,560.0
42.93434715270996,547.0
42.937777042388916,533.0
42.941195011138916,518.0
42.944719076156616,504.0
42.94911313056946,490.0
42.98401403427124,476.0
42.98770594596863,464.0
42.99149012565613,455.0
42.99875998497009,447.0
43.00309991836548,441.0
43.003262996673584,435.0
43.03881812095642,432.0
43.04231810569763,430.0
43.04587006568909,429.0
43.049444913864136,427.0
43.052212953567505,425.0
43.056516885757446,424.0
43.06094312667847,423.0
43.08882522583008,423.0
43.09247899055481,421.0
43.0967960357666,420.0
43.12130403518677,418.0
43.12502884864807,415.0
43.129403829574585,414.0
43.15377902984619,414.0
43.15743803977966,415.0
43.161818981170654,416.0
43.185508012771606,418.0
43.18879795074463,422.0
43.19692301750183,427.0
43.197092056274414,432.0
43.20379900932312,439.0
43.20837616920471,445.0
43.23516488075256,452.0
43.23878002166748,459.0
43.2436261177063,467.0
43.28545308113098,475.0
43.28900504112244,483.0
43.292654037475586,493.0
43.29625082015991,501.0
43.30054187774658,509.0
43.32148504257202,517.0
43.32512402534485,524.0
43.32943105697632,529.0
43.353882789611816,534.0
43.357534885406494,536.0
43.36206102371216,537.0
43.386818170547485,535.0
43.39008402824402,531.0
43.3939311504364,525.0
43.3983519077301,518.0
43.42033004760742,510.0
43.4238440990448,499.0
43.428258180618286,490.0
43.45258283615112,480.0
43.45624613761902,471.0
43.46061396598816,461.0
43.493268966674805,451.0
43.49645113945007,443.0
43.49999117851257,436.0
43.50361490249634,428.0
43.507997035980225,423.0
43.53004693984985,422.0
43.533565044403076,423.0
43.53790497779846,430.0
43.59400820732117,444.0
43.59770202636719,472.0
43.601487159729004,512.0
43.605218172073364,564.0
43.608773946762085,624.0
43.61397981643677,688.0
43.632599115371704,749.0
43.63633584976196,806.0
43.63999390602112,852.0
43.64372515678406,883.0
43.64826488494873,898.0
43.65271711349487,896.0
43.67888903617859,880.0
43.682193994522095,850.0
43.685961961746216,810.0
43.696163177490234,762.0
43.725290060043335,713.0
43.728742837905884,664.0
43.73243999481201,617.0
43.73756814002991,575.0
43.75903010368347,541.0
43.76256203651428,515.0
43.76642298698425,499.0
43.79708290100098,489.0
43.80060791969299,486.0
43.80425500869751,486.0
43.80861806869507,487.0
43.83402490615845,491.0
43.84112095832825,494.0
43.84130001068115,496.0
43.8449809551239,498.0
43.8843469619751,502.0
43.8879292011261,504.0
43.8918731212616,504.0
43.90253400802612,506.0
43.90624785423279,508.0
43.91140294075012,510.0
43.93506693840027,510.0
43.93873691558838,511.0
43.942424058914185,509.0
43.947592973709106,507.0
43.968806982040405,504.0
43.97244119644165,499.0
43.976962089538574,492.0
44.00139093399048,484.0
44.00501894950867,477.0
44.00938701629639,469.0
44.033843994140625,461.0
44.03747296333313,453.0
44.04107904434204,446.0
44.04542803764343,439.0
44.06778001785278,435.0
44.07129192352295,432.0
44.07563018798828,429.0
44.10423493385315,427.0
44.10759401321411,427.0
44.11133289337158,427.0
44.11574196815491,427.0
44.13880395889282,430.0
44.14249801635742,432.0
44.14682602882385,434.0
44.187873125076294,437.0
44.19109511375427,440.0
44.194408893585205,442.0
44.19784498214722,445.0
44.20193099975586,448.0
44.22378492355347,450.0
44.22748804092407,451.0
44.231876850128174,453.0
44.25636100769043,455.0
44.259958028793335,455.0
44.26796197891235,456.0
44.27762007713318,457.0
44.27779197692871,456.0
44.28216195106506,455.0
44.317898988723755,455.0
44.321367025375366,453.0
44.325042963027954,451.0
44.33025598526001,448.0
44.352564096450806,444.0
44.35619401931763,441.0
44.361454010009766,439.0
44.38505506515503,436.0
44.38860297203064,434.0
44.392942905426025,433.0
44.45196795463562,431.0
44.455363035202026,430.0
44.45874786376953,430.0
44.46206498146057,431.0
44.50204300880432,432.0
44.50540280342102,433.0
44.509145975112915,435.0
44.51660490036011,436.0
44.51676607131958,438.0
44.5203320980072,438.0
44.52442288398743,441.0
44.52802586555481,442.0
44.5315420627594,443.0
44.535972118377686,443.0
44.5538170337677,443.0
44.55746006965637,443.0
44.56181716918945,444.0
44.58648085594177,444.0
44.590171813964844,444.0
44.593892097473145,444.0
44.5974280834198,444.0
44.620089054107666,444.0
44.62379288673401,444.0
44.62814998626709,443.0
44.65255403518677,442.0
44.656227111816406,441.0
44.66061592102051,443.0
44.68505597114563,450.0
44.68875002861023,464.0
44.6924090385437,492.0
44.69678211212158,532.0
44.7204270362854,583.0
44.72375202178955,644.0
44.72818684577942,710.0
44.78416705131531,775.0
44.78773307800293,833.0
44.79143309593201,882.0
44.7951180934906,915.0
44.79887390136719,932.0
44.802443981170654,933.0
44.80574703216553,917.0
44.82521200180054,886.0
44.82873511314392,845.0
44.833099126815796,795.0
44.85753607749939,741.0
44.861172914505005,689.0
44.8655469417572,640.0
44.8900511264801,597.0
44.893791913986206,563.0
44.89749002456665,536.0
44.90535306930542,519.0
44.908687114715576,510.0
44.9088499546051,508.0
44.9361138343811,511.0
44.95754098892212,515.0
44.961262226104736,519.0
44.964826822280884,522.0
44.96921181678772,522.0
44.99137592315674,520.0
44.99501395225525,515.0
44.99935793876648,509.0
45.02539801597595,502.0
45.02879309654236,496.0
45.032004833221436,489.0
45.03605604171753,484.0
45.0840368270874,482.0
45.08772301673889,480.0
45.09138894081116,479.0
45.09491991996765,479.0
45.09926986694336,478.0
45.11938691139221,476.0
45.12288498878479,474.0
45.12671113014221,472.0
45.13036298751831,468.0
45.13480615615845,465.0
45.16011691093445,461.0
45.163732051849365,456.0
45.16806411743164,451.0
45.192599058151245,444.0
45.19627499580383,439.0
45.200676918029785,435.0
45.22756099700928,431.0
45.23120307922363,430.0
45.23487305641174,427.0
45.23923683166504,428.0
45.26127910614014,429.0
45.26497507095337,431.0
45.26932406425476,433.0
45.29760003089905,436.0
45.30119299888611,440.0
45.30555605888367,442.0
45.372124910354614,445.0
45.37544083595276,447.0
45.37881803512573,450.0
45.38206911087036,450.0
45.38534998893738,450.0
45.39012885093689,449.0
45.42447113990784,448.0
45.42786407470703,447.0
45.43131709098816,445.0
45.43528914451599,443.0
45.439072132110596,441.0
45.44281506538391,440.0
45.44641590118408,438.0
45.44999408721924,435.0
45.45437216758728,434.0
45.472567081451416,433.0
45.47672080993652,433.0
45.481178998947144,433.0
45.50756788253784,433.0
45.51107096672058,435.0
45.51543617248535,437.0
45.53506898880005,436.0
45.538745164871216,437.0
45.54675793647766,438.0
45.56898784637451,438.0
45.569177865982056,439.0
45.57262706756592,439.0
45.57697010040283,439.0
45.601332902908325,439.0
45.605000019073486,440.0
45.609330892562866,440.0
45.63312315940857,439.0
45.63694381713867,440.0
45.640501976013184,440.0
45.64383387565613,440.0
45.687756061553955,440.0
45.69135499000549,439.0
45.69502592086792,438.0
45.698636054992676,439.0
45.703027963638306,437.0
45.72380995750427,435.0
45.72700905799866,436.0
45.7308030128479,435.0
45.74020791053772,434.0
45.77056407928467,434.0
45.77074408531189,435.0
45.77411699295044,438.0
45.77853012084961,439.0
45.80385112762451,441.0
45.807493925094604,442.0
45.811118841171265,443.0
45.815552949905396,442.0
45.83688497543335,443.0
45.84034204483032,443.0
45.844465017318726,443.0
45.87006115913391,443.0
45.87376308441162,442.0
45.87812900543213,440.0
45.90261101722717,439.0
45.90626096725464,438.0
45.911460161209106,441.0
45.934370040893555,449.0
46.0283100605011,468.0
46.03162908554077,499.0
46.035563945770264,542.0
46.03907513618469,596.0
46.04316186904907,659.0
46.04772615432739,726.0
46.05149483680725,792.0
46.055335998535156,851.0
46.05910396575928,897.0
46.06283187866211,928.0
46.0665647983551,941.0
46.07032513618469,938.0
46.07405710220337,919.0
46.07772183418274,884.0
46.081273794174194,839.0
46.08563208580017,787.0
46.10385489463806,732.0
46.10744094848633,678.0
46.11183309555054,627.0
46.13560914993286,584.0
46.139302015304565,548.0
46.143162965774536,522.0
46.147895097732544,507.0
46.15844106674194,498.0
46.18754577636719,496.0
46.18774604797363,499.0
46.191197872161865,504.0
46.19556903839111,508.0
46.239490032196045,511.0
46.243086099624634,511.0
46.2458701133728,509.0
46.249566078186035,505.0
46.294800996780396,503.0
46.2949800491333,498.0
46.29813599586487,494.0
46.30195617675781,490.0
46.3055260181427,488.0
46.30940103530884,486.0
46.3459370136261,483.0
46.349205017089844,482.0
46.35261607170105,481.0
46.356338024139404,480.0
46.359894037246704,479.0
46.364253997802734,476.0
46.383805990219116,474.0
46.387531042099,472.0
46.39583206176758,467.0
46.39595699310303,462.0
46.41754078865051,457.0
46.42097997665405,452.0
46.42624807357788,448.0
46.45638394355774,443.0
46.46012496948242,439.0
46.463788986206055,436.0
46.46805000305176,433.0
46.490071058273315,430.0
46.49374198913574,427.0
46.498127937316895,426.0
46.52283596992493,424.0
46.52644109725952,423.0
46.53081297874451,424.0
46.58420395851135,426.0
46.58776593208313,429.0
46.59154200553894,433.0
46.59527397155762,436.0
46.599019050598145,439.0
46.60273098945618,441.0
46.60626411437988,444.0
46.61060619354248,444.0
46.62887716293335,444.0
46.632554054260254,445.0
46.6369731426239,444.0
46.6613609790802,442.0
46.66509222984314,440.0
46.670259952545166,440.0
46.69383192062378,437.0
46.69751596450806,434.0
46.70182991027832,432.0
46.72629714012146,431.0
46.72999310493469,428.0
46.734326124191284,428.0
46.75793194770813,426.0
46.7610969543457,426.0
46.764363050460815,428.0
46.76752805709839,428.0
46.778472900390625,428.0
46.78207492828369,429.0
46.8288049697876,430.0
46.831660985946655,431.0
46.83806800842285,432.0
46.841188192367554,432.0
46.841387033462524,432.0
46.84443116188049,432.0
46.93093395233154,431.0
46.93411302566528,429.0
46.93748617172241,429.0
46.940633058547974,429.0
46.94428014755249,428.0
46.94811201095581,428.0
46.983208894729614,428.0
46.99758219718933,430.0
47.001352071762085,431.0
47.005106925964355,431.0
47.00880479812622,432.0
47.01263999938965,434.0
47.01639103889465,436.0
47.0201210975647,437.0
47.02385997772217,437.0
47.02754521369934,438.0
47.03132605552673,438.0
47.039726972579956,438.0
47.03989005088806,439.0
47.0579788684845,440.0
47.06179618835449,441.0
47.06562685966492,442.0
47.070799827575684,441.0
47.10004711151123,441.0
47.10372519493103,442.0
47.10809397697449,444.0
47.13258099555969,449.0
47.136237144470215,460.0
47.14140796661377,481.0
47.21701192855835,512.0
47.22059082984924,555.0
47.22443199157715,607.0
47.2657949924469,667.0
47.26918983459473,729.0
47.27251195907593,791.0
47.27655100822449,846.0
47.2803590297699,891.0
47.28409695625305,918.0
47.28784704208374,929.0
47.29159712791443,924.0
47.29539513587952,903.0
47.29911494255066,868.0
47.302900075912476,822.0
47.30642509460449,769.0
47.309977769851685,715.0
47.31434917449951,660.0
47.33267903327942,609.0
47.33633518218994,568.0
47.34151816368103,533.0
47.36427283287048,507.0
47.36787796020508,489.0
47.37182378768921,480.0
47.3754141330719,477.0
47.404701948165894,478.0
47.40914011001587,481.0
47.41358995437622,484.0
47.438809871673584,487.0
47.442485094070435,488.0
47.44767904281616,490.0
47.48330593109131,491.0
47.48348808288574,493.0
47.529552936553955,494.0
47.53291606903076,494.0
47.536401987075806,495.0
47.53968000411987,495.0
47.54289698600769,497.0
47.546847105026245,497.0
47.55064916610718,496.0
47.554064989089966,494.0
47.55927610397339,491.0
47.56303381919861,487.0
47.566861152648926,483.0
47.58141112327576,476.0
47.5859739780426,470.0
47.61253094673157,463.0
47.61622190475464,458.0
47.62065601348877,451.0
47.645195960998535,446.0
47.64874005317688,442.0
47.653120040893555,437.0
47.676859855651855,432.0
47.68010711669922,428.0
47.68437194824219,427.0
47.68788719177246,425.0
47.69226408004761,426.0
47.71880388259888,427.0
47.722368001937866,430.0
47.72673010826111,432.0
47.75140309333801,435.0
47.75546097755432,438.0
47.759989976882935,440.0
47.792115926742554,441.0
47.795372009277344,443.0
47.799299001693726,445.0
47.80312395095825,448.0
47.84350800514221,449.0
47.846660137176514,450.0
47.84993100166321,451.0
47.85432815551758,451.0
47.85812211036682,451.0
47.89572501182556,450.0
47.898988008499146,449.0
47.903090953826904,449.0
47.90684103965759,449.0
47.93429207801819,449.0
47.93791484832764,448.0
47.94179677963257,448.0
47.94557809829712,446.0
47.98332118988037,444.0
47.986613035202026,443.0
47.98983407020569,442.0
47.99340605735779,440.0
47.99708795547485,439.0
48.000860929489136,436.0
48.00634694099426,432.0
48.00998616218567,431.0
48.014440059661865,430.0
48.0400550365448,430.0
48.04374599456787,430.0
48.04806303977966,432.0
48.092034101486206,432.0
48.09523677825928,434.0
48.09837603569031,436.0
48.10181498527527,438.0
48.109699010849,439.0
48.13003587722778,438.0
48.13022994995117,439.0
48.13410401344299,441.0
48.13840579986572,442.0
48.15881609916687,443.0
48.16253113746643,444.0
48.1669659614563,445.0
48.190613985061646,445.0
48.19434094429016,445.0
48.198972940444946,446.0
48.22507286071777,447.0
48.22870993614197,448.0
48.23305606842041,448.0
48.257648944854736,447.0
48.2613000869751,447.0
48.2648651599884,446.0
48.2692129611969,444.0
48.29693388938904,444.0
48.30428600311279,445.0
48.307543992996216,449.0
48.31392002105713,457.0
48.31408500671387,476.0
48.41854214668274,507.0
48.42162108421326,548.0
48.42522597312927,603.0
48.42876195907593,666.0
48.43198204040527,733.0
48.46966600418091,799.0
48.472867012023926,860.0
48.47604203224182,907.0
48.47956299781799,939.0
48.48321008682251,945.0
48.4865300655365,945.0
48.52325510978699,943.0
48.527002811431885,910.0
48.54255795478821,865.0
48.54632091522217,811.0
48.55011796951294,753.0
48.55384397506714,695.0
48.55758309364319,641.0
48.5613808631897,596.0
48.56510806083679,558.0
48.56887102127075,529.0
48.57259702682495,509.0
48.576326847076416,497.0
48.58012390136719,492.0
48.583828926086426,490.0
48.58734893798828,491.0
48.59252095222473,493.0
48.61134314537048,495.0
48.61497187614441,497.0
48.62017202377319,499.0
48.64386987686157,500.0
48.647571086883545,500.0
48.651933908462524,501.0
48.68526315689087,500.0
48.68885612487793,499.0
48.69240713119507,500.0
48.69571900367737,501.0
48.71049499511719,501.0
48.713785886764526,502.0
48.71868300437927,503.0
48.743833780288696,501.0
48.74748706817627,500.0
48.747689962387085,496.0
48.75186896324158,489.0
48.797091007232666,482.0
48.80094909667969,474.0
48.811054944992065,466.0
48.840436935424805,458.0
48.8406138420105,451.0
48.840771198272705,445.0
48.8441379070282,441.0
48.84779500961304,438.0
48.85216212272644,435.0
48.873862981796265,433.0
48.87747406959534,432.0
48.88184905052185,431.0
48.91132116317749,431.0
48.915037870407104,432.0
48.918636083602905,435.0
48.92379403114319,436.0
48.945066928863525,440.0
48.9487829208374,443.0
48.95855379104614,448.0
48.95875883102417,451.0
48.98757195472717,454.0
48.99117398262024,456.0
48.99486708641052,458.0
48.999228954315186,461.0
49.02192997932434,462.0
49.025376081466675,463.0
49.02868723869324,462.0
49.05521583557129,461.0
49.05896806716919,459.0
49.06270217895508,456.0
49.067116022109985,454.0
49.088825941085815,451.0
49.09247803688049,449.0
49.09698510169983,447.0
49.121320962905884,446.0
49.12501311302185,443.0
49.12937092781067,441.0
49.153831005096436,438.0
49.15749502182007,435.0
49.16115999221802,435.0
49.16551923751831,433.0
49.18840193748474,433.0
49.19199895858765,433.0
49.19634199142456,433.0
