2.1457672119140625e-06,482.0
0.17820525169372559,481.0
0.21558904647827148,482.0
0.25289320945739746,483.0
0.2918510437011719,484.0
0.32802605628967285,487.0
0.36667323112487793,490.0
0.40151333808898926,493.0
0.4045429229736328,496.0
0.40761613845825195,497.0
0.411297082901001,498.0
0.4149329662322998,499.0
0.420147180557251,498.0
0.4753611087799072,498.0
0.5124790668487549,498.0
0.5160760879516602,498.0
0.5202910900115967,497.0
0.5246262550354004,497.0
0.5286951065063477,497.0
0.5325191020965576,497.0
0.5841588973999023,496.0
0.6215732097625732,494.0
0.6592302322387695,493.0
0.6963281631469727,492.0
0.696486234664917,492.0
0.7001931667327881,490.0
0.7002930641174316,492.0
0.7003741264343262,493.0
0.7004501819610596,492.0
0.7042641639709473,491.0
0.7078180313110352,489.0
0.7115781307220459,489.0
0.7690670490264893,489.0
0.7730228900909424,488.0
0.8067519664764404,488.0
0.8441662788391113,491.0
0.8442962169647217,492.0
0.8443892002105713,495.0
0.8444690704345703,497.0
0.8445491790771484,500.0
0.8807501792907715,505.0
0.918128252029419,509.0
0.9556021690368652,513.0
0.9929032325744629,519.0
1.0306103229522705,523.0
1.0680460929870605,526.0
1.1070101261138916,528.0
1.1071112155914307,529.0
1.1071901321411133,527.0
1.1072649955749512,527.0
1.107344150543213,524.0
1.1104519367218018,521.0
1.1105363368988037,517.0
1.1106281280517578,512.0
1.114558219909668,507.0
1.114645004272461,503.0
1.1147220134735107,499.0
1.1147990226745605,495.0
1.118119239807129,492.0
1.121800184249878,492.0
1.1263322830200195,490.0
1.177992343902588,488.0
1.215461254119873,487.0
1.2531311511993408,487.0
1.253265142440796,486.0
1.253359079360962,487.0
1.2916600704193115,489.0
1.2918000221252441,490.0
1.2918801307678223,492.0
1.2919681072235107,494.0
1.2920429706573486,496.0
1.29215407371521,497.0
1.2922332286834717,499.0
1.2923190593719482,499.0
1.292450189590454,500.0
1.2925372123718262,500.0
1.292614221572876,500.0
1.2927050590515137,500.0
1.292799949645996,499.0
1.292884349822998,496.0
1.2930049896240234,495.0
1.2930891513824463,493.0
1.2931849956512451,493.0
1.2932631969451904,492.0
1.2933380603790283,492.0
1.2934153079986572,492.0
1.293499231338501,490.0
1.2935731410980225,490.0
1.2936551570892334,491.0
1.2937312126159668,491.0
1.2938120365142822,491.0
1.293889045715332,492.0
1.2939691543579102,491.0
1.2940490245819092,491.0
1.2941250801086426,492.0
1.294201135635376,492.0
1.2942781448364258,493.0
1.2943520545959473,493.0
1.2944281101226807,494.0
1.29451322555542,495.0
1.2945880889892578,497.0
1.2946641445159912,499.0
1.2947382926940918,501.0
1.2948122024536133,504.0
1.2948882579803467,505.0
1.2949659824371338,508.0
1.2950420379638672,512.0
1.2951242923736572,515.0
1.3285963535308838,520.0
1.3287642002105713,524.0
1.3320281505584717,528.0
1.3362181186676025,532.0
1.3392302989959717,533.0
1.343677282333374,532.0
1.3994760513305664,529.0
1.4037339687347412,526.0
1.437939167022705,521.0
1.474055290222168,516.0
1.5127620697021484,511.0
1.5505962371826172,507.0
1.5878040790557861,503.0
1.626129150390625,500.0
1.6295051574707031,496.0
1.6332621574401855,494.0
1.636723279953003,493.0
1.6411283016204834,491.0
1.6964070796966553,490.0
1.700545072555542,488.0
1.7354140281677246,487.0
1.7728052139282227,487.0
1.8103559017181396,487.0
1.8478741645812988,487.0
1.8843591213226318,488.0
1.9235410690307617,490.0
1.9270052909851074,491.0
1.9270892143249512,492.0
1.9308311939239502,494.0
1.9309241771697998,496.0
1.931004285812378,496.0
1.9310803413391113,499.0
1.933873176574707,499.0
1.9339702129364014,500.0
1.9340732097625732,500.0
1.9386060237884521,501.0
1.93870210647583,499.0
1.9387850761413574,499.0
1.9388630390167236,497.0
1.9939613342285156,496.0
1.9940581321716309,494.0
1.9941470623016357,493.0
1.994225263595581,491.0
1.9943022727966309,489.0
1.998305082321167,488.0
2.0329651832580566,488.0
2.070784091949463,489.0
2.1077561378479004,488.0
2.1460931301116943,488.0
2.1829071044921875,489.0
2.219517230987549,489.0
2.2196390628814697,490.0
2.2197182178497314,491.0
2.2197952270507812,492.0
2.222978115081787,495.0
2.2230701446533203,496.0
2.2231552600860596,498.0
2.2232320308685303,499.0
2.2270703315734863,497.0
2.227156162261963,497.0
2.2272441387176514,496.0
2.2309212684631348,494.0
2.2310051918029785,494.0
2.2310831546783447,493.0
2.2311580181121826,493.0
2.231241226196289,493.0
2.2348861694335938,494.0
2.234997034072876,495.0
2.2350902557373047,495.0
2.2397711277008057,495.0
2.2398593425750732,495.0
2.23994517326355,496.0
2.2400801181793213,497.0
2.290719985961914,499.0
2.3279452323913574,501.0
2.3654520511627197,504.0
2.4027702808380127,507.0
2.440864086151123,510.0
2.4777910709381104,516.0
2.4779601097106934,520.0
2.5292131900787354,525.0
2.52937912940979,527.0
2.529538154602051,529.0
2.5296969413757324,531.0
2.566643238067627,530.0
2.5668132305145264,529.0
2.56697416305542,524.0
2.567146062850952,519.0
2.6027891635894775,514.0
2.602952241897583,510.0
2.603109121322632,508.0
2.6032681465148926,504.0
2.641674041748047,499.0
2.6418533325195312,497.0
2.6420202255249023,495.0
2.6856250762939453,494.0
2.685821294784546,493.0
2.6859822273254395,491.0
2.6861441135406494,491.0
2.7229251861572266,491.0
2.7230892181396484,492.0
2.7232491970062256,493.0
2.760874032974243,495.0
2.7972540855407715,498.0
2.801025152206421,500.0
2.8048880100250244,502.0
2.8080780506134033,501.0
2.811711072921753,500.0
2.8169682025909424,500.0
2.8171310424804688,499.0
2.817291021347046,498.0
2.8174493312835693,497.0
2.8176093101501465,497.0
2.8440101146698,495.0
2.8441760540008545,495.0
2.8443362712860107,494.0
2.8444950580596924,495.0
2.8816821575164795,495.0
2.8818459510803223,495.0
2.882004976272583,496.0
2.8821661472320557,497.0
2.919198989868164,498.0
2.919365167617798,500.0
2.919523000717163,500.0
2.9568560123443604,501.0
2.9570300579071045,501.0
2.957188129425049,500.0
2.9573471546173096,498.0
2.9575071334838867,496.0
2.9943580627441406,495.0
2.9945271015167236,492.0
2.9946961402893066,492.0
2.994856119155884,491.0
2.9950151443481445,489.0
3.031675100326538,489.0
3.0318381786346436,488.0
3.031999111175537,488.0
3.07037615776062,487.0
3.070552110671997,487.0
3.070712089538574,488.0
3.0708701610565186,489.0
3.107403039932251,491.0
3.1123950481414795,494.0
3.112558126449585,495.0
3.112718105316162,496.0
3.112877130508423,497.0
3.1130361557006836,497.0
3.113204002380371,499.0
3.1133692264556885,499.0
3.116020917892456,502.0
3.1161961555480957,505.0
3.1163570880889893,509.0
3.1165170669555664,512.0
3.1203911304473877,515.0
3.1205649375915527,521.0
3.120727062225342,525.0
3.120887041091919,529.0
3.1240739822387695,532.0
3.1242411136627197,536.0
3.1244001388549805,537.0
3.128035068511963,537.0
3.1805381774902344,535.0
3.216632127761841,531.0
3.254487991333008,526.0
3.291800022125244,519.0
3.329270124435425,512.0
3.3668341636657715,506.0
3.367027997970581,500.0
3.405548095703125,495.0
3.4057390689849854,491.0
3.4059011936187744,487.0
3.4060862064361572,486.0
3.40625,486.0
3.4087321758270264,486.0
3.408895969390869,487.0
3.409072160720825,488.0
3.412130117416382,491.0
3.412302017211914,493.0
3.412461996078491,495.0
3.412621021270752,496.0
3.415717124938965,497.0
3.415898084640503,498.0
3.416063070297241,498.0
3.416224956512451,499.0
3.4189460277557373,499.0
3.4191200733184814,499.0
3.419281244277954,500.0
3.4213461875915527,498.0
3.4215149879455566,497.0
3.4216933250427246,496.0
3.4218533039093018,496.0
3.4220709800720215,497.0
3.479828357696533,497.0
3.5166730880737305,498.0
3.5541749000549316,499.0
3.5916731357574463,499.0
3.629106283187866,499.0
3.6672120094299316,498.0
3.704927921295166,499.0
3.7051210403442383,499.0
3.7052810192108154,499.0
3.705446243286133,497.0
3.7085931301116943,496.0
3.708768129348755,495.0
3.7089312076568604,494.0
3.7090911865234375,493.0
3.712423086166382,493.0
3.7125842571258545,492.0
3.7127442359924316,492.0
3.7129032611846924,491.0
3.716109037399292,491.0
3.7162721157073975,492.0
3.71643328666687,493.0
3.716604232788086,495.0
3.719788074493408,497.0
3.7199501991271973,499.0
3.7201101779937744,502.0
3.720269203186035,506.0
3.724360227584839,510.0
3.724522113800049,515.0
3.724680185317993,519.0
3.775536060333252,523.0
3.811627149581909,527.0
3.847867250442505,530.0
3.8846781253814697,531.0
3.9216933250427246,531.0
3.959174156188965,529.0
3.996150016784668,525.0
3.9963161945343018,520.0
3.9964799880981445,517.0
3.9966390132904053,512.0
3.9967942237854004,507.0
4.033829212188721,504.0
4.034012079238892,499.0
4.034187078475952,497.0
4.034349203109741,494.0
4.069009304046631,491.0
4.069177150726318,487.0
4.069336175918579,486.0
4.069494009017944,484.0
4.106659173965454,483.0
4.106819152832031,483.0
4.10697603225708,484.0
4.1428961753845215,486.0
4.143060922622681,488.0
4.143225193023682,491.0
4.143385171890259,494.0
4.180574893951416,496.0
4.180766344070435,499.0
4.180945158004761,501.0
4.181103229522705,502.0
4.218055248260498,504.0
4.255601167678833,503.0
4.293045997619629,502.0
4.331336259841919,502.0
4.367985248565674,502.0
4.406783103942871,502.0
4.442967176437378,500.0
4.443079233169556,500.0
4.443172216415405,499.0
4.443264007568359,498.0
4.443356275558472,496.0
4.481843948364258,496.0
4.482041120529175,495.0
4.482206344604492,493.0
4.519689321517944,494.0
4.519866228103638,494.0
4.520028114318848,493.0
4.52018928527832,492.0
4.555499076843262,493.0
4.555677175521851,493.0
4.555835247039795,494.0
4.593109130859375,495.0
4.5933051109313965,496.0
4.593468189239502,495.0
4.5936291217803955,495.0
4.631446123123169,495.0
4.631595134735107,496.0
4.631716012954712,497.0
4.631832122802734,499.0
4.669288158416748,501.0
4.66946816444397,503.0
4.669628143310547,507.0
4.669788122177124,512.0
4.706897258758545,517.0
4.707090139389038,523.0
4.707253932952881,527.0
4.744362115859985,530.0
4.744531154632568,532.0
4.744692087173462,531.0
4.744850158691406,529.0
4.782952308654785,527.0
4.783128023147583,524.0
4.783289194107056,521.0
4.7834460735321045,516.0
4.820389270782471,512.0
4.8205461502075195,508.0
4.820710182189941,505.0
4.820871114730835,501.0
4.857809066772461,499.0
4.858011245727539,497.0
4.8581812381744385,494.0
4.85834527015686,493.0
4.896188259124756,492.0
4.896362066268921,491.0
4.8965229988098145,492.0
4.935924053192139,493.0
4.936111211776733,495.0
4.9362711906433105,496.0
4.936431169509888,498.0
4.971493244171143,499.0
4.971656322479248,499.0
4.971813201904297,501.0
4.971970081329346,502.0
5.0091681480407715,503.0
5.009342908859253,503.0
5.009523153305054,502.0
5.047456979751587,500.0
5.047652244567871,499.0
5.047812223434448,498.0
5.047973155975342,497.0
5.084232330322266,496.0
5.084402322769165,495.0
5.084562301635742,495.0
5.084720134735107,495.0
5.121687173843384,495.0
5.121851205825806,496.0
5.1220080852508545,498.0
5.122168064117432,498.0
5.158272981643677,497.0
5.158466100692749,497.0
5.158626079559326,497.0
5.195533037185669,496.0
5.195718288421631,496.0
5.1958770751953125,497.0
5.196036100387573,497.0
5.198697328567505,496.0
5.198858976364136,496.0
5.199017286300659,495.0
5.199190139770508,494.0
5.201923131942749,493.0
5.202094078063965,492.0
5.202253103256226,492.0
5.202412128448486,494.0
5.205148220062256,497.0
5.205310344696045,500.0
5.20546817779541,505.0
5.205627202987671,510.0
5.208996057510376,515.0
5.209161281585693,520.0
5.209320306777954,524.0
5.212175130844116,528.0
5.212335109710693,531.0
5.212493181228638,531.0
5.212651014328003,531.0
5.215514183044434,529.0
5.215677261352539,527.0
5.215845108032227,523.0
5.216003179550171,519.0
5.267858266830444,513.0
5.268033027648926,508.0
5.268196105957031,504.0
5.268355131149292,500.0
5.271371126174927,496.0
5.271538257598877,494.0
5.271698236465454,493.0
5.271856069564819,491.0
5.306920289993286,489.0
5.307112216949463,488.0
5.307274103164673,488.0
5.344239234924316,489.0
5.344404220581055,492.0
5.344563245773315,494.0
5.344721078872681,496.0
5.383044242858887,498.0
5.383226156234741,498.0
5.383389234542847,498.0
5.383549213409424,497.0
5.420434236526489,497.0
5.42060112953186,498.0
5.420762062072754,498.0
5.4585771560668945,499.0
5.458742141723633,500.0
5.458900213241577,500.0
5.459057092666626,501.0
5.4952661991119385,500.0
5.495375156402588,500.0
5.495465993881226,500.0
5.495556116104126,498.0
5.531887054443359,496.0
5.532076120376587,495.0
5.532241106033325,494.0
5.5323991775512695,493.0
5.569411039352417,492.0
5.569594144821167,492.0
5.569760084152222,490.0
5.606895208358765,490.0
5.607075214385986,489.0
5.607237100601196,489.0
5.607396125793457,488.0
5.644484043121338,489.0
5.681746244430542,490.0
5.719455003738403,492.0
5.75681209564209,494.0
5.794548034667969,495.0
5.8328471183776855,497.0
5.869197130203247,499.0
5.906845331192017,501.0
5.944273233413696,502.0
5.944448947906494,504.0
5.944613218307495,506.0
5.981716156005859,509.0
5.981889009475708,512.0
5.982055187225342,516.0
5.982216119766235,519.0
6.019406080245972,522.0
6.0195910930633545,525.0
6.019750118255615,527.0
6.019909143447876,528.0
6.056976079940796,529.0
6.05716609954834,529.0
6.057326078414917,527.0
6.094586133956909,526.0
6.094770193099976,524.0
6.094933986663818,520.0
6.0950939655303955,516.0
6.095261335372925,511.0
6.134312152862549,506.0
6.134510040283203,503.0
6.134673118591309,500.0
6.1706013679504395,497.0
6.170777082443237,493.0
6.17093825340271,489.0
6.171097040176392,484.0
6.208214998245239,481.0
6.208405017852783,478.0
6.208565950393677,477.0
6.2087249755859375,477.0
6.245487213134766,478.0
6.245654106140137,480.0
6.245811939239502,484.0
6.283006906509399,486.0
6.283169984817505,488.0
6.283346176147461,492.0
6.283513069152832,495.0
6.320573329925537,498.0
6.320756912231445,500.0
6.320918083190918,503.0
6.3210790157318115,504.0
6.358152151107788,504.0
6.358341217041016,503.0
6.358515977859497,502.0
6.358676910400391,500.0
6.396460056304932,500.0
6.39664101600647,499.0
6.3968000411987305,498.0
6.40014910697937,498.0
6.400328159332275,497.0
6.400493144989014,496.0
6.400654077529907,496.0
6.403767108917236,496.0
6.403929233551025,496.0
6.404088020324707,497.0
6.4042441844940186,496.0
6.407491207122803,496.0
6.407663106918335,496.0
6.407824277877808,496.0
6.411328077316284,496.0
6.411489009857178,495.0
6.411646127700806,495.0
6.411803245544434,495.0
6.411962032318115,497.0
6.415820121765137,499.0
6.415982007980347,500.0
6.416140079498291,501.0
6.467814207077026,503.0
6.4679789543151855,505.0
6.468138933181763,508.0
6.468297958374023,510.0
6.505306243896484,514.0
6.505384206771851,518.0
6.505458116531372,519.0
6.542895078659058,522.0
6.542985200881958,525.0
6.543060302734375,527.0
6.543136119842529,528.0
6.580627202987671,528.0
6.580703973770142,529.0
6.580778121948242,528.0
6.580852031707764,525.0
6.617838144302368,521.0
6.61800217628479,516.0
6.618165969848633,511.0
6.61832594871521,507.0
6.655555009841919,504.0
6.655738115310669,500.0
6.655898094177246,496.0
6.65605616569519,491.0
6.693105220794678,487.0
6.693281173706055,485.0
6.693439960479736,484.0
6.732182025909424,484.0
6.732373952865601,486.0
6.732537031173706,488.0
6.732697010040283,491.0
6.7681872844696045,495.0
6.768362045288086,498.0
6.7685370445251465,500.0
6.7687060832977295,502.0
6.805773019790649,505.0
6.805938243865967,507.0
6.806098222732544,507.0
6.806257247924805,508.0
6.842847108840942,508.0
6.842931270599365,507.0
6.8430070877075195,506.0
6.84308123588562,504.0
6.879286050796509,502.0
6.879479169845581,500.0
6.879639148712158,498.0
6.916642189025879,496.0
6.953289270401001,494.0
6.989448308944702,493.0
7.027234077453613,491.0
7.030951261520386,491.0
7.034444093704224,491.0
7.038210153579712,489.0
7.038373231887817,489.0
7.038548231124878,490.0
7.038710117340088,492.0
7.038870096206665,493.0
7.0428149700164795,494.0
7.0429770946502686,496.0
7.043142080307007,497.0
7.0433032512664795,496.0
7.097529172897339,496.0
7.097809076309204,497.0
7.097977161407471,496.0
7.098138093948364,497.0
7.10284423828125,497.0
7.103028059005737,499.0
7.103192090988159,501.0
7.136620044708252,505.0
7.136805057525635,509.0
7.136966228485107,514.0
7.137120962142944,520.0
7.17482328414917,525.0
7.1749889850616455,527.0
7.175148010253906,529.0
7.17531418800354,530.0
7.210552215576172,531.0
7.25774621963501,529.0
7.25793194770813,527.0
7.258103132247925,524.0
7.258268117904663,520.0
7.258426189422607,515.0
7.258584022521973,511.0
7.258743047714233,507.0
7.262333154678345,503.0
7.262500047683716,499.0
7.262659072875977,496.0
7.266008138656616,492.0
7.26616907119751,489.0
7.2663280963897705,488.0
7.266487121582031,487.0
7.270097255706787,487.0
7.270258188247681,488.0
7.270417213439941,490.0
7.2738800048828125,492.0
7.274041175842285,494.0
7.27420711517334,497.0
7.274366140365601,498.0
7.278503179550171,499.0
7.278663158416748,501.0
7.278820037841797,503.0
7.2789812088012695,503.0
7.3277082443237305,503.0
7.327837228775024,503.0
7.327987909317017,503.0
7.328145265579224,503.0
7.331181049346924,501.0
7.3313422203063965,499.0
7.331500053405762,497.0
7.334634065628052,495.0
7.33797025680542,496.0
7.341224193572998,496.0
7.344587087631226,496.0
7.399183034896851,496.0
7.4429521560668945,498.0
7.443120241165161,497.0
7.480443239212036,498.0
7.480621099472046,499.0
7.480784177780151,498.0
7.480958938598633,496.0
7.518020153045654,496.0
7.518182277679443,495.0
7.5183422565460205,494.0
7.518498182296753,494.0
7.55686616897583,492.0
7.557063102722168,492.0
7.557224273681641,491.0
7.557396173477173,492.0
7.594133138656616,493.0
7.594295978546143,495.0
7.594457149505615,498.0
7.594619274139404,501.0
7.632884979248047,504.0
7.670692205429077,508.0
7.708606243133545,512.0
7.744405031204224,516.0
7.781660079956055,520.0
7.819232940673828,524.0
7.856750011444092,528.0
7.856917142868042,531.0
7.894562005996704,534.0
7.931833028793335,536.0
7.970351219177246,536.0
8.007859945297241,534.0
8.045701265335083,530.0
8.082872152328491,526.0
8.083045244216919,521.0
8.0832040309906,516.0
8.083364009857178,512.0
8.083521127700806,507.0
8.0836820602417,502.0
8.12033200263977,498.0
8.120512962341309,496.0
8.120672941207886,494.0
8.120834112167358,490.0
8.157921075820923,490.0
8.158090114593506,488.0
8.1582510471344,487.0
8.196376085281372,487.0
8.196572303771973,487.0
8.19673228263855,488.0
8.196892261505127,489.0
8.231856107711792,491.0
8.232028245925903,493.0
8.232186079025269,495.0
8.232346057891846,497.0
8.270954132080078,500.0
8.271119117736816,502.0
8.271278142929077,504.0
8.271435976028442,504.0
8.308018207550049,504.0
8.308163166046143,503.0
8.30828309059143,502.0
8.30840802192688,501.0
8.344702243804932,502.0
8.344877004623413,501.0
8.345036029815674,501.0
8.381510257720947,501.0
8.38167405128479,502.0
8.381836175918579,502.0
8.3820059299469,501.0
8.41923213005066,499.0
8.419416189193726,499.0
8.41957712173462,497.0
8.41973614692688,496.0
8.456747055053711,495.0
8.456913232803345,494.0
8.45707106590271,493.0
8.457228183746338,492.0
8.494441270828247,493.0
8.49461030960083,495.0
8.494770288467407,494.0
8.533190250396729,494.0
8.533374309539795,495.0
8.533533334732056,495.0
8.533691167831421,496.0
8.570597171783447,497.0
8.570759296417236,498.0
8.570917129516602,501.0
8.57107400894165,505.0
8.608094930648804,511.0
8.608272075653076,517.0
8.608434200286865,522.0
8.645466089248657,527.0
8.645658254623413,531.0
8.645838022232056,533.0
8.646003246307373,534.0
8.684325218200684,535.0
8.684494018554688,536.0
8.684653043746948,536.0
8.684809923171997,536.0
8.684967279434204,533.0
8.685124158859253,529.0
8.685290098190308,523.0
8.685486078262329,518.0
8.685665130615234,512.0
8.685823917388916,506.0
8.68598222732544,501.0
8.686140298843384,497.0
8.686295986175537,495.0
8.686453104019165,493.0
8.686610221862793,491.0
8.686776161193848,491.0
8.686935186386108,491.0
8.687092065811157,490.0
8.687244176864624,491.0
8.687359094619751,489.0
8.68747329711914,488.0
8.687588214874268,488.0
8.687701940536499,489.0
8.687817335128784,490.0
8.687931060791016,493.0
8.688045024871826,495.0
8.688159942626953,498.0
8.688275337219238,499.0
8.688388109207153,501.0
8.688502073287964,504.0
8.68861722946167,506.0
8.688733100891113,505.0
8.688847064971924,505.0
8.688963174819946,502.0
8.689077138900757,501.0
8.689191102981567,500.0
8.6892831325531,499.0
8.689373254776001,498.0
8.689461946487427,497.0
8.689552068710327,498.0
8.689641237258911,496.0
8.689736127853394,494.0
8.71970820426941,494.0
8.719879150390625,494.0
8.720038175582886,492.0
8.720197200775146,492.0
8.720356225967407,492.0
8.720513105392456,492.0
8.720670223236084,494.0
8.720827102661133,495.0
8.720983982086182,497.0
8.721139907836914,499.0
8.721298217773438,499.0
8.721455097198486,499.0
8.721610069274902,500.0
8.72176718711853,500.0
8.721923112869263,499.0
8.722090005874634,499.0
8.722248315811157,501.0
8.72240424156189,504.0
8.723910093307495,508.0
8.759566068649292,513.0
8.795372009277344,518.0
8.798831224441528,522.0
8.802256107330322,526.0
8.80619215965271,529.0
8.809457302093506,532.0
8.813696146011353,534.0
8.816953182220459,535.0
8.86934232711792,533.0
8.906710147857666,531.0
8.944220304489136,527.0
8.980481147766113,523.0
9.018247127532959,519.0
9.05294418334961,514.0
9.090363264083862,509.0
9.127471208572388,504.0
9.131185293197632,500.0
9.134793281555176,497.0
9.138487100601196,495.0
9.142375230789185,492.0
9.148065090179443,490.0
9.199552059173584,489.0
9.2366361618042,489.0
9.273054122924805,489.0
9.310416221618652,489.0
9.34785008430481,489.0
9.385483980178833,489.0
9.385653972625732,491.0
9.385816097259521,492.0
9.385981321334839,495.0
9.429378986358643,496.0
9.429548978805542,498.0
9.429709196090698,499.0
9.466591119766235,500.0
9.46677017211914,502.0
9.466930150985718,502.0
9.467090129852295,503.0
9.50537919998169,502.0
9.505567073822021,502.0
9.505731105804443,502.0
9.542850017547607,500.0
9.543026208877563,500.0
9.54318618774414,500.0
9.54334306716919,499.0
9.581088066101074,498.0
9.581279039382935,497.0
9.581441164016724,497.0
9.58160924911499,496.0
9.61792516708374,496.0
9.618099212646484,497.0
9.618261098861694,496.0
9.618421077728271,496.0
9.655539989471436,496.0
9.691644191741943,496.0
9.69493818283081,496.0
9.698416233062744,496.0
9.701689004898071,495.0
9.70504117012024,496.0
9.709071159362793,496.0
9.70925521850586,497.0
9.709417343139648,498.0
9.709577322006226,500.0
9.764303207397461,502.0
9.764472007751465,505.0
9.764637231826782,508.0
9.76479721069336,511.0
9.801682233810425,515.0
9.801843166351318,519.0
9.802000045776367,523.0
9.802159070968628,526.0
9.839304208755493,529.0
9.83948016166687,531.0
9.839643239974976,531.0
9.839802026748657,530.0
9.876708030700684,527.0
9.876880168914795,525.0
9.8770432472229,521.0
9.91549015045166,518.0
9.915653228759766,514.0
9.915810108184814,510.0
9.915996074676514,507.0
9.952893257141113,502.0
9.953054904937744,497.0
9.953213214874268,494.0
9.953373193740845,490.0
9.990899324417114,489.0
9.991070985794067,488.0
9.991233110427856,488.0
9.991393089294434,487.0
10.031644105911255,487.0
10.031806230545044,490.0
10.031963109970093,491.0
10.03212308883667,492.0
10.069236993789673,494.0
10.0694100856781,496.0
10.069570064544678,500.0
10.069728136062622,502.0
10.10654902458191,503.0
10.106712102890015,504.0
10.106872081756592,503.0
10.14453911781311,503.0
10.14472508430481,501.0
10.144889116287231,500.0
10.145048141479492,499.0
10.180457353591919,499.0
10.180629014968872,497.0
10.18078899383545,497.0
10.180971145629883,496.0
10.2191641330719,496.0
10.257198095321655,495.0
10.294565200805664,493.0
10.332199096679688,494.0
10.335912227630615,492.0
10.33978796005249,492.0
10.343611240386963,492.0
10.343774318695068,492.0
10.343934297561646,495.0
10.344093322753906,497.0
10.344252109527588,498.0
10.348103284835815,498.0
10.348266124725342,498.0
10.348425149917603,498.0
10.348597049713135,498.0
10.402410984039307,499.0
10.402538061141968,502.0
10.402648210525513,504.0
10.406697988510132,505.0
10.406774997711182,508.0
10.406850099563599,513.0
10.406931161880493,518.0
10.44166111946106,524.0
10.441823959350586,529.0
10.441982984542847,534.0
10.442142963409424,536.0
10.47816014289856,537.0
10.478373050689697,537.0
10.478536128997803,535.0
10.478705167770386,532.0
10.51662302017212,527.0
10.516809940338135,521.0
10.516969203948975,516.0
10.517127275466919,510.0
10.55797815322876,504.0
10.558187007904053,499.0
10.558354139328003,495.0
10.594361066818237,492.0
10.594529151916504,491.0
10.594708919525146,490.0
10.59487009048462,488.0
10.632724285125732,488.0
10.63290810585022,488.0
10.633070230484009,489.0
10.633230209350586,490.0
10.636011123657227,492.0
10.636173009872437,493.0
10.63633108139038,495.0
10.636488199234009,497.0
10.639856100082397,498.0
10.640018224716187,499.0
10.640191078186035,499.0
10.640368223190308,499.0
10.642665147781372,500.0
10.642831087112427,500.0
10.642987966537476,499.0
10.645539045333862,497.0
10.645715236663818,496.0
10.645879983901978,496.0
10.64604115486145,497.0
10.648649215698242,496.0
10.648811101913452,496.0
10.64896821975708,498.0
10.649126291275024,498.0
10.69255018234253,498.0
10.695909261703491,499.0
10.699434041976929,500.0
10.702673196792603,501.0
10.706115007400513,501.0
10.70887017250061,503.0
10.708949089050293,504.0
10.712115287780762,504.0
10.7121901512146,503.0
10.712265253067017,501.0
10.712338209152222,499.0
10.715512037277222,497.0
10.715591192245483,495.0
10.71567416191101,494.0
10.718805074691772,494.0
10.718883037567139,495.0
10.719005107879639,498.0
10.719086170196533,503.0
10.722146987915039,507.0
10.722229957580566,513.0
10.7223060131073,521.0
10.722381114959717,526.0
10.725456237792969,531.0
10.725533246994019,535.0
10.72560715675354,537.0
10.725682258605957,539.0
10.72878623008728,537.0
10.728863954544067,534.0
10.728939056396484,529.0
10.729014158248901,524.0
10.732128143310547,521.0
10.735382080078125,515.0
10.738561153411865,511.0
10.741677045822144,507.0
10.761342287063599,502.0
10.76468300819397,499.0
10.76818299293518,499.0
10.771468162536621,496.0
10.771630048751831,493.0
10.774721145629883,491.0
10.778067350387573,491.0
10.781225204467773,489.0
10.78455924987793,489.0
10.803674221038818,489.0
10.80697226524353,490.0
10.81009817123413,491.0
10.813505172729492,491.0
10.837406158447266,493.0
10.840739011764526,495.0
10.843940019607544,497.0
10.860164165496826,499.0
10.863463163375854,501.0
10.891415119171143,503.0
10.894711017608643,504.0
10.89820408821106,504.0
10.95409607887268,504.0
10.957137107849121,505.0
10.960549116134644,504.0
10.963948011398315,503.0
10.967421293258667,502.0
10.97071623802185,500.0
10.974043130874634,498.0
10.998820066452026,497.0
11.002257108688354,497.0
11.005447149276733,497.0
11.008638143539429,496.0
11.03250503540039,495.0
11.035798072814941,494.0
11.039068222045898,492.0
11.042514324188232,493.0
11.066196918487549,492.0
11.06950306892395,494.0
11.072893142700195,495.0
11.098741054534912,495.0
11.102057933807373,496.0
11.105399131774902,496.0
11.131214141845703,495.0
11.134674310684204,495.0
11.138113021850586,495.0
11.163687229156494,496.0
11.167038202285767,498.0
11.170245170593262,501.0
11.196262121200562,505.0
11.199518918991089,511.0
11.202691078186035,515.0
11.255243062973022,521.0
11.258244037628174,527.0
11.261944055557251,532.0
11.265595197677612,537.0
11.269209146499634,540.0
11.272739171981812,542.0
11.276885986328125,542.0
11.28080415725708,540.0
11.297487020492554,537.0
11.30072808265686,533.0
11.303884983062744,528.0
11.32998514175415,521.0
11.333253145217896,515.0
11.336534023284912,509.0
11.362476110458374,503.0
11.365730047225952,497.0
11.368958950042725,493.0
11.394987106323242,489.0
11.398198127746582,487.0
11.401365041732788,487.0
11.42744493484497,487.0
11.430686235427856,489.0
11.433717012405396,491.0
11.436846017837524,492.0
11.46119499206543,494.0
11.464376211166382,496.0
11.467584133148193,497.0
11.470799207687378,498.0
11.494932174682617,499.0
11.498294115066528,502.0
11.501752138137817,503.0
11.555031061172485,505.0
11.558125019073486,505.0
11.561267137527466,505.0
11.564692974090576,504.0
11.567890167236328,503.0
11.571073055267334,500.0
11.593642950057983,499.0
11.596957206726074,497.0
11.60021710395813,496.0
11.626159191131592,496.0
11.629505157470703,495.0
11.632659196853638,495.0
11.635865211486816,493.0
11.667761087417603,491.0
11.670900106430054,490.0
11.67410922050476,489.0
11.677379131317139,490.0
11.702582120895386,490.0
11.705891132354736,490.0
11.70942997932434,489.0
11.712352991104126,490.0
11.736298084259033,493.0
11.739431142807007,494.0
11.742670059204102,494.0
11.768733263015747,496.0
11.771977186203003,497.0
11.775183200836182,498.0
11.801109075546265,499.0
11.804428100585938,500.0
11.807680130004883,502.0
11.855135917663574,503.0
11.858147144317627,504.0
11.861302137374878,506.0
11.864579200744629,508.0
11.867722988128662,510.0
11.889913082122803,514.0
11.893189191818237,519.0
11.89634919166565,524.0
11.899564981460571,529.0
11.902775049209595,532.0
11.926313161849976,537.0
11.92973804473877,540.0
11.932894945144653,540.0
11.959545135498047,539.0
11.963139057159424,537.0
11.967563152313232,534.0
11.992001056671143,529.0
11.995537281036377,524.0
11.999927997589111,520.0
12.023804187774658,516.0
12.027340173721313,510.0
12.031718254089355,507.0
12.057074308395386,504.0
12.060686111450195,500.0
12.065028190612793,498.0
12.089413166046143,496.0
12.093002080917358,494.0
12.096665143966675,492.0
12.101879119873047,492.0
12.15742301940918,491.0
12.160926342010498,491.0
12.164613246917725,491.0
12.168365001678467,493.0
12.172153234481812,495.0
12.175767183303833,496.0
12.179369926452637,498.0
12.183680057525635,500.0
12.204426050186157,503.0
12.20792818069458,504.0
12.213196992874146,503.0
12.219367265701294,501.0
12.222919225692749,499.0
12.249446153640747,497.0
12.253113031387329,497.0
12.257506132125854,496.0
12.281985998153687,495.0
12.286076307296753,495.0
12.291236162185669,494.0
12.310265064239502,494.0
12.33948802947998,496.0
12.33957815170288,497.0
12.343208312988281,497.0
12.34694504737854,498.0
12.351274967193604,499.0
12.373332262039185,499.0
12.376950979232788,500.0
12.382193088531494,499.0
12.405719995498657,498.0
12.409470319747925,497.0
12.413227081298828,496.0
12.417536973953247,496.0
12.455950021743774,497.0
12.459981203079224,498.0
12.463494062423706,500.0
12.467072010040283,500.0
12.471405029296875,502.0
12.493159294128418,503.0
12.49678897857666,504.0
12.50122594833374,506.0
12.52580213546753,508.0
12.529420137405396,511.0
12.532934188842773,514.0
12.536141157150269,517.0
12.558878898620605,521.0
12.562096118927002,526.0
12.565438270568848,530.0
12.59125804901123,532.0
12.594468116760254,535.0
12.597691059112549,535.0
12.623688220977783,534.0
12.626924991607666,531.0
12.63026213645935,528.0
12.656257152557373,525.0
12.659571886062622,521.0
12.662819147109985,517.0
12.666007995605469,512.0
12.690275192260742,507.0
12.693395137786865,503.0
12.6967191696167,497.0
12.754067182540894,494.0
12.757323980331421,489.0
12.760971069335938,487.0
12.76468014717102,487.0
12.768399238586426,486.0
12.771963119506836,486.0
12.77649998664856,487.0
12.794466018676758,490.0
12.798099279403687,493.0
12.801773071289062,496.0
12.80645203590393,497.0
12.828849077224731,501.0
12.83336615562439,503.0
12.837764024734497,504.0
12.841174125671387,506.0
12.900121212005615,507.0
12.90323519706726,506.0
12.906540155410767,504.0
12.909974098205566,502.0
12.913263082504272,499.0
12.916537046432495,498.0
12.948077201843262,498.0
12.951008081436157,498.0
12.954362154006958,499.0
12.957605123519897,499.0
12.960830211639404,498.0
12.98383617401123,498.0
12.987044095993042,497.0
12.990222215652466,497.0
12.993489265441895,496.0
13.017482042312622,495.0
13.020777940750122,496.0
13.024026155471802,496.0
13.050010204315186,498.0
13.053429126739502,500.0
13.056694030761719,499.0
13.084939956665039,499.0
13.088398218154907,500.0
13.091756105422974,499.0
13.117435216903687,497.0
13.120751142501831,496.0
13.123906135559082,496.0
13.127145290374756,496.0
13.151130199432373,498.0
13.154535293579102,500.0
13.157865285873413,504.0
13.16146206855774,509.0
13.198706150054932,515.0
13.202078342437744,521.0
13.205790281295776,527.0
13.210186958312988,531.0
13.232010126113892,535.0
13.235623121261597,540.0
13.240072250366211,541.0
13.264464139938354,542.0
13.268054962158203,541.0
13.272509098052979,539.0
13.296983003616333,536.0
13.300649166107178,533.0
13.304271221160889,527.0
13.308646202087402,520.0
13.330714225769043,513.0
13.334418296813965,505.0
13.338829040527344,498.0
13.3632071018219,491.0
13.366876125335693,487.0
13.370533227920532,485.0
13.37492823600769,484.0
13.396183013916016,485.0
13.399505138397217,484.0
13.402775049209595,486.0
13.432044982910156,488.0
13.435716152191162,492.0
13.440109014511108,493.0
13.497112035751343,495.0
13.500770092010498,498.0
13.504499197006226,500.0
13.508264303207397,502.0
13.511995077133179,503.0
13.516146183013916,504.0
13.519750118255615,504.0
13.524944067001343,502.0
13.543206214904785,502.0
13.546727180480957,502.0
13.551122188568115,502.0
13.588412284851074,502.0
13.592264175415039,502.0
13.595916032791138,502.0
13.59947419166565,500.0
13.603860139846802,499.0
13.62443208694458,499.0
13.628139019012451,499.0
13.631991147994995,499.0
13.636353015899658,497.0
13.658214092254639,495.0
13.661524295806885,494.0
13.665862083435059,491.0
13.691004276275635,490.0
13.694451332092285,490.0
13.698853254318237,491.0
13.723576068878174,493.0
13.72699522972107,496.0
13.731445074081421,496.0
13.755833148956299,496.0
13.759413003921509,496.0
13.763169050216675,496.0
13.797134160995483,496.0
13.800801038742065,497.0
13.804286241531372,499.0
13.80795693397522,502.0
13.811635971069336,504.0
13.816009998321533,509.0
13.83948016166687,512.0
13.843191146850586,518.0
13.847620010375977,523.0
13.871968030929565,527.0
13.875657320022583,532.0
13.880859136581421,536.0
13.904536008834839,538.0
13.908124208450317,539.0
13.91253113746643,538.0
13.936942100524902,535.0
13.940650939941406,532.0
13.945029258728027,529.0
13.968730211257935,526.0
13.972280025482178,521.0
13.97591233253479,519.0
13.980308294296265,516.0
14.003245115280151,512.0
14.006853103637695,508.0
14.010493278503418,505.0
14.014878273010254,500.0
14.036912202835083,498.0
14.040457248687744,496.0
14.0449059009552,494.0
14.09971809387207,494.0
14.103178024291992,494.0
14.10693907737732,494.0
14.110718250274658,494.0
14.11434817314148,494.0
14.119506120681763,494.0
14.138258218765259,495.0
14.14182710647583,496.0
14.14548921585083,497.0
14.149914026260376,499.0
14.171142101287842,500.0
14.174633979797363,501.0
14.179330110549927,504.0
14.204975128173828,505.0
14.209274053573608,506.0
14.228255033493042,505.0
14.231869220733643,503.0
14.235553979873657,502.0
14.240748167037964,499.0
14.261982917785645,497.0
14.265681266784668,496.0
14.269976139068604,494.0
14.29453420639038,494.0
14.298110246658325,495.0
14.301774024963379,496.0
14.306161165237427,496.0
14.328516244888306,496.0
14.331757068634033,496.0
14.33703327178955,495.0
14.360689163208008,494.0
14.364876985549927,494.0
14.369347095489502,495.0
14.40347409248352,494.0
14.406875133514404,495.0
14.410487174987793,495.0
14.415723085403442,497.0
14.437036037445068,499.0
14.440747022628784,501.0
14.444502115249634,502.0
14.448856115341187,502.0
14.464746952056885,502.0
14.468266010284424,501.0
14.472710132598877,500.0
14.497003078460693,500.0
14.500495195388794,501.0
14.504820108413696,500.0
14.52943205833435,501.0
14.533135175704956,502.0
14.537509202957153,504.0
14.561995029449463,507.0
14.565584182739258,510.0
14.570794105529785,514.0
14.593759059906006,520.0
14.597065210342407,527.0
14.60039496421814,533.0
14.613540172576904,537.0
14.616904258728027,541.0
14.645398139953613,542.0
14.648396015167236,543.0
14.64856219291687,541.0
14.651656150817871,537.0
14.697772026062012,534.0
14.700882196426392,529.0
14.704176187515259,523.0
14.707444906234741,518.0
14.710647106170654,513.0
14.732424259185791,509.0
14.735757112503052,504.0
14.739044189453125,501.0
14.764925241470337,497.0
14.768216133117676,496.0
14.77144718170166,493.0
14.774687051773071,491.0
14.798649072647095,489.0
14.802037954330444,488.0
14.805559158325195,489.0
14.832115888595581,489.0
14.836497068405151,491.0
14.841026067733765,492.0
14.868284225463867,494.0
14.871942281723022,495.0
14.872130155563354,497.0
14.876321077346802,499.0
14.900674104690552,501.0
14.904431104660034,501.0
14.909585237503052,501.0
14.933253049850464,501.0
14.937350273132324,502.0
14.9410080909729,503.0
14.946485042572021,504.0
14.998415231704712,503.0
15.0019850730896,502.0
15.00574016571045,502.0
15.009446144104004,500.0
15.013051271438599,499.0
15.017431020736694,497.0
15.03698205947876,495.0
15.040755987167358,494.0
15.04508900642395,495.0
15.06943416595459,496.0
15.073114156723022,496.0
15.07676911354065,498.0
15.081159114837646,497.0
15.10250210762024,497.0
15.10567021369934,499.0
15.108895063400269,500.0
15.11209225654602,500.0
15.136370182037354,502.0
15.139533996582031,503.0
15.142747163772583,503.0
15.168655157089233,502.0
15.171985149383545,503.0
15.175222158432007,503.0
15.201136112213135,501.0
15.20433521270752,499.0
15.207648038864136,499.0
15.233671188354492,499.0
15.237004041671753,501.0
15.240468978881836,502.0
15.296514987945557,504.0
15.299715042114258,508.0
15.302984237670898,512.0
15.306355237960815,517.0
15.309834003448486,522.0
15.313051223754883,527.0
15.316360235214233,531.0
15.32076907157898,533.0
15.343178033828735,536.0
15.346830129623413,538.0
15.35047698020935,538.0
15.355706214904785,536.0
15.37694525718689,534.0
15.380656242370605,529.0
15.385108947753906,524.0
15.409477233886719,519.0
15.413161277770996,513.0
15.418401002883911,508.0
15.44197130203247,502.0
15.445658206939697,497.0
15.45003604888916,493.0
15.474533081054688,489.0
15.478170156478882,487.0
15.482542037963867,486.0
15.509908199310303,485.0
15.513177156448364,484.0
15.516372919082642,487.0
15.519676208496094,489.0
15.522844076156616,491.0
15.544865131378174,495.0
15.548263311386108,498.0
15.551507234573364,501.0
15.598814964294434,503.0
15.601936101913452,504.0
15.605136156082153,507.0
15.60842227935791,508.0
15.61162805557251,507.0
15.633728981018066,507.0
15.637035131454468,506.0
15.640474081039429,505.0
15.66620421409607,503.0
15.669411182403564,500.0
15.672604084014893,500.0
15.675779104232788,499.0
15.7000150680542,498.0
15.703363180160522,497.0
15.70674204826355,495.0
15.733195066452026,494.0
15.736850261688232,494.0
15.740581035614014,494.0
15.744868040084839,494.0
15.767382144927979,493.0
15.770678043365479,493.0
15.775021076202393,493.0
15.799440145492554,494.0
15.803635120391846,494.0
15.807343244552612,495.0
15.831969976425171,496.0
15.835644245147705,497.0
15.840051174163818,498.0
15.900846004486084,497.0
15.904528141021729,497.0
15.908239126205444,497.0
15.91215205192566,499.0
15.91542911529541,499.0
15.919195175170898,501.0
15.922771215438843,505.0
15.927207231521606,509.0
15.946942329406738,514.0
15.950636148452759,521.0
15.954262971878052,525.0
15.95861029624939,530.0
15.980675220489502,534.0
15.984313011169434,536.0
15.988763093948364,536.0
16.013200044631958,534.0
16.016479969024658,531.0
16.02111506462097,527.0
16.045686960220337,523.0
16.049336194992065,517.0
16.052987098693848,512.0
16.057399034500122,505.0
16.079346179962158,500.0
16.08293914794922,497.0
16.087353229522705,494.0
16.111929178237915,491.0
16.11847496032715,488.0
16.1216402053833,487.0
16.180857181549072,488.0
16.213946104049683,490.0
16.25027823448181,491.0
16.28782320022583,492.0
16.32547616958618,494.0
16.362882137298584,494.0
16.40033197402954,495.0
16.437730073928833,497.0
16.476400136947632,498.0
16.52304720878601,500.0
16.560582160949707,501.0
16.597873210906982,501.0
16.635403156280518,502.0
16.672794103622437,503.0
16.710528135299683,504.0
16.748018264770508,504.0
16.785370111465454,505.0
16.82399821281433,504.0
16.87280821800232,503.0
16.910189151763916,503.0
16.94909429550171,503.0
16.98643398284912,502.0
17.023964166641235,502.0
17.024062156677246,500.0
17.02416729927063,499.0
17.0242440700531,499.0
17.061650276184082,499.0
17.06177520751953,498.0
17.06185507774353,497.0
17.061933994293213,496.0
17.09932017326355,495.0
17.09946322441101,496.0
17.099553108215332,496.0
17.136975049972534,497.0
17.137099981307983,498.0
17.137189149856567,499.0
17.137264251708984,501.0
17.174028158187866,502.0
17.174124002456665,503.0
17.174203157424927,504.0
17.17427921295166,507.0
17.17435622215271,510.0
17.22537899017334,515.0
17.22552514076233,520.0
17.22560405731201,526.0
17.2257080078125,529.0
17.263739109039307,531.0
17.263872146606445,533.0
17.263955116271973,534.0
17.264034032821655,535.0
17.300213098526,533.0
17.300339937210083,530.0
17.30042600631714,527.0
17.337818145751953,522.0
17.33793306350708,516.0
17.338011264801025,511.0
17.338097095489502,506.0
17.37413716316223,500.0
17.374251127243042,496.0
17.374338150024414,494.0
17.37723422050476,492.0
17.377336025238037,491.0
17.377435207366943,491.0
17.377514123916626,491.0
17.380532026290894,491.0
17.38061213493347,492.0
17.380703926086426,494.0
17.38077998161316,496.0
17.383960008621216,497.0
17.38405132293701,499.0
17.384177207946777,501.0
17.384265184402466,501.0
17.38727331161499,502.0
17.387362003326416,502.0
17.387439250946045,503.0
17.387516260147095,503.0
17.387591123580933,503.0
17.390469074249268,503.0
17.390552043914795,504.0
17.390652179718018,505.0
17.3907310962677,505.0
17.44676923751831,504.0
17.446871995925903,503.0
17.446949243545532,503.0
17.484198093414307,501.0
17.484317302703857,499.0
17.484435319900513,499.0
17.48452115058899,499.0
17.484596014022827,500.0
17.521741151809692,500.0
17.521847009658813,499.0
17.52192711830139,497.0
17.57767915725708,497.0
17.577848196029663,498.0
17.577925205230713,498.0
17.578004360198975,498.0
17.58097004890442,499.0
17.581061124801636,500.0
17.581135034561157,501.0
17.584699153900146,502.0
17.58478307723999,504.0
17.584903240203857,508.0
17.584991931915283,512.0
17.58878803253174,517.0
17.588879108428955,522.0
17.588956117630005,527.0
17.58903217315674,531.0
17.592385053634644,535.0
17.592493057250977,537.0
17.59257221221924,539.0
17.59264826774597,539.0
17.592722177505493,538.0
17.5977041721344,536.0
17.597790956497192,531.0
17.59786605834961,526.0
17.59793996810913,520.0
17.64933133125305,515.0
17.649587154388428,508.0
17.64976215362549,501.0
17.649933099746704,496.0
17.68664813041687,490.0
17.686841011047363,488.0
17.68703317642212,486.0
17.724441051483154,484.0
17.724613189697266,484.0
17.724780082702637,485.0
17.724966287612915,485.0
17.761648178100586,487.0
17.79938507080078,489.0
17.836848258972168,492.0
17.874616146087646,496.0
17.929516077041626,497.0
17.967231035232544,500.0
18.00422215461731,503.0
18.00441312789917,505.0
18.00465416908264,505.0
18.00484824180603,507.0
18.005007028579712,507.0
18.041940927505493,508.0
18.04212498664856,508.0
18.042312145233154,507.0
18.042508125305176,505.0
18.079069137573242,504.0
18.079242944717407,504.0
18.07942008972168,503.0
18.079585075378418,502.0
18.079780101776123,501.0
18.11641502380371,500.0
18.154032230377197,500.0
18.19208312034607,499.0
18.229011297225952,497.0
18.27800226211548,497.0
18.31567406654358,495.0
18.353289365768433,495.0
18.353520154953003,494.0
18.35371208190918,495.0
18.35391116142273,495.0
18.354106187820435,493.0
18.390422105789185,494.0
18.390600204467773,495.0
18.39078116416931,496.0
18.391027212142944,497.0
18.42776322364807,499.0
18.42794418334961,499.0
18.428120136260986,502.0
18.428297996520996,504.0
18.46579909324646,507.0
18.465981245040894,510.0
18.466073036193848,514.0
18.503244161605835,519.0
18.503491163253784,524.0
18.5037682056427,529.0
18.50395107269287,534.0
18.540502071380615,537.0
18.54072117805481,540.0
18.540881156921387,541.0
18.540959119796753,540.0
18.57813811302185,538.0
18.578288078308105,534.0
18.57845401763916,530.0
18.578638076782227,524.0
18.57881212234497,519.0
18.629387140274048,514.0
18.629584074020386,508.0
18.62980031967163,504.0
18.630022287368774,499.0
18.66698122024536,494.0
18.667206287384033,490.0
18.6673903465271,487.0
18.667579174041748,486.0
18.70472025871277,486.0
18.70496916770935,487.0
18.705158233642578,489.0
18.742985248565674,491.0
18.74312424659729,494.0
18.743231058120728,496.0
18.743328094482422,499.0
18.743422985076904,502.0
18.77935004234314,503.0
18.77949810028076,504.0
18.77959394454956,506.0
18.816686153411865,508.0
18.816859245300293,510.0
18.817018032073975,509.0
18.81717610359192,507.0
18.85424518585205,505.0
18.854429244995117,503.0
18.854590892791748,498.0
18.85476517677307,496.0
18.891603231430054,494.0
18.891767978668213,493.0
18.89192509651184,492.0
18.930392026901245,493.0
18.930583000183105,494.0
18.930745124816895,496.0
18.93090510368347,498.0
18.93106508255005,499.0
18.93122911453247,500.0
18.98150396347046,500.0
18.981663942337036,501.0
18.981820106506348,502.0
19.019774913787842,502.0
19.019946098327637,502.0
19.02010416984558,502.0
19.02026104927063,501.0
19.056188106536865,499.0
19.056364059448242,498.0
19.056522130966187,497.0
19.056679248809814,497.0
19.093995094299316,497.0
19.094160079956055,496.0
19.094319105148315,497.0
19.131524085998535,499.0
19.131684064865112,501.0
19.131858110427856,504.0
19.132018327713013,508.0
19.13217520713806,511.0
19.168909072875977,515.0
19.169069051742554,519.0
19.169225931167603,523.0
19.207431316375732,527.0
19.207605123519897,531.0
19.207762241363525,533.0
19.207919120788574,533.0
19.244120121002197,534.0
19.24428629875183,532.0
19.244444131851196,530.0
19.281585216522217,527.0
19.281759023666382,523.0
19.28191828727722,519.0
19.28207516670227,515.0
19.28223204612732,511.0
19.33349299430847,508.0
19.333657026290894,504.0
19.33381414413452,499.0
19.333982944488525,496.0
19.3702871799469,495.0
19.370447158813477,495.0
19.370602130889893,494.0
19.370758295059204,494.0
19.40770411491394,494.0
19.407875061035156,496.0
19.408034086227417,496.0
19.40819025039673,499.0
19.445178031921387,499.0
19.445342302322388,500.0
19.445499181747437,502.0
19.445656061172485,503.0
19.484049081802368,504.0
19.48421025276184,504.0
19.484368085861206,503.0
19.520602226257324,503.0
19.520763158798218,504.0
19.520921230316162,504.0
19.52107810974121,505.0
19.556677103042603,506.0
19.55683398246765,506.0
19.55695104598999,505.0
19.557067155838013,505.0
19.59285306930542,504.0
19.593024969100952,503.0
19.593186140060425,502.0
19.59334397315979,501.0
19.629168272018433,500.0
19.629286289215088,499.0
19.62937903404236,499.0
19.62947106361389,499.0
19.629561185836792,499.0
19.686894178390503,498.0
19.68707823753357,498.0
19.687236070632935,497.0
19.722803115844727,497.0
19.722978115081787,498.0
19.723140239715576,498.0
19.723300218582153,499.0
19.759051084518433,499.0
19.759212970733643,499.0
19.75938606262207,499.0
19.75954508781433,499.0
19.79537606239319,499.0
19.79553723335266,499.0
19.795696258544922,499.0
19.795854091644287,502.0
19.83395504951477,503.0
19.83412194252014,505.0
19.83428192138672,507.0
19.83445119857788,509.0
19.87035322189331,512.0
19.87051010131836,518.0
19.870666980743408,524.0
19.907799005508423,529.0
19.907971143722534,532.0
19.908132076263428,536.0
19.908290147781372,537.0
19.946563005447388,537.0
19.94673204421997,535.0
19.946892023086548,533.0
19.98416304588318,530.0
19.984336137771606,527.0
19.984495162963867,522.0
19.984652042388916,518.0
19.98481822013855,511.0
19.98499035835266,505.0
20.0407612323761,499.0
20.040955066680908,495.0
20.041115283966064,491.0
20.04132604598999,488.0
20.077776193618774,486.0
20.077939987182617,485.0
20.078099250793457,484.0
20.114182233810425,485.0
20.114344120025635,488.0
20.11450219154358,491.0
20.11466908454895,493.0
20.152798175811768,495.0
20.15295720100403,496.0
20.153115272521973,498.0
20.15327215194702,499.0
20.190423011779785,500.0
20.190616130828857,501.0
20.190773963928223,500.0
20.227642059326172,503.0
20.227805137634277,505.0
20.22796320915222,504.0
20.22812008857727,504.0
20.26584005355835,504.0
20.266003131866455,504.0
20.266160249710083,504.0
20.26631808280945,503.0
20.302897214889526,502.0
20.30306625366211,500.0
20.303221940994263,499.0
20.303377151489258,496.0
20.34043002128601,495.0
20.340593099594116,495.0
20.340750217437744,495.0
20.340907096862793,494.0
20.34106421470642,494.0
20.39108920097351,493.0
20.391249179840088,492.0
20.3914213180542,492.0
20.391579151153564,492.0
20.39486002922058,494.0
20.395020008087158,495.0
20.395178079605103,497.0
20.39533519744873,499.0
20.398529052734375,500.0
20.39869213104248,501.0
20.39885115623474,503.0
20.40244197845459,505.0
20.402600288391113,507.0
20.402759313583374,511.0
20.402915000915527,514.0
20.40607213973999,518.0
20.40623116493225,524.0
20.406387329101562,527.0
20.406541109085083,531.0
20.41043519973755,535.0
20.41055727005005,536.0
20.410673141479492,534.0
20.463101148605347,532.0
20.463303089141846,530.0
20.46346426010132,528.0
20.46362328529358,523.0
20.500307321548462,519.0
20.500478982925415,514.0
20.500646114349365,510.0
20.500802993774414,507.0
20.537842273712158,504.0
20.538011074066162,503.0
20.538169145584106,501.0
20.53832507133484,498.0
20.538483142852783,496.0
20.538639068603516,495.0
20.57632827758789,495.0
20.576488256454468,495.0
20.576645135879517,495.0
20.576802015304565,496.0
20.57695722579956,496.0
20.57711410522461,496.0
20.577269077301025,495.0
20.57742404937744,495.0
20.577593088150024,496.0
20.577749967575073,497.0
20.57790517807007,499.0
20.578060150146484,502.0
20.5782151222229,502.0
20.578370094299316,502.0
20.578526258468628,502.0
20.578662157058716,501.0
20.57877516746521,501.0
20.57888913154602,500.0
20.5790011882782,501.0
20.579113245010376,500.0
20.57923412322998,501.0
20.579347133636475,499.0
20.57946014404297,500.0
20.579572916030884,499.0
20.579689979553223,500.0
20.579803228378296,500.0
20.579915046691895,499.0
20.580028295516968,499.0
20.5801420211792,499.0
20.580259084701538,499.0
20.58037304878235,500.0
20.58048725128174,501.0
20.580600023269653,501.0
20.580697059631348,501.0
20.580785274505615,500.0
20.580891132354736,499.0
20.58098006248474,499.0
20.58107018470764,499.0
20.581159114837646,501.0
20.581247091293335,504.0
20.58133602142334,505.0
20.58142614364624,508.0
20.61141610145569,511.0
20.611578226089478,514.0
20.611732959747314,519.0
20.647773265838623,522.0
20.68424129486084,527.0
20.740236043930054,530.0
20.779038906097412,532.0
20.817119121551514,535.0
20.854438066482544,536.0
20.89159321784973,536.0
20.92793321609497,535.0
20.965257167816162,533.0
21.00280213356018,529.0
21.040419101715088,525.0
21.08924627304077,519.0
21.1266610622406,514.0
21.16408109664917,509.0
21.202933073043823,504.0
21.239065170288086,499.0
21.27762007713318,495.0
21.315686225891113,492.0
21.35321021080017,488.0
21.39047908782959,487.0
21.3906512260437,486.0
21.390810251235962,485.0
21.39096713066101,486.0
21.391123294830322,487.0
21.440457344055176,488.0
21.440653085708618,489.0
21.440826177597046,492.0
21.44098711013794,495.0
21.47677206993103,499.0
21.476948976516724,502.0
21.477105140686035,504.0
21.477262020111084,505.0
21.477417945861816,507.0
21.512999296188354,507.0
21.51314926147461,508.0
21.513272047042847,508.0
21.550604104995728,509.0
21.550798177719116,508.0
21.55095911026001,506.0
21.551117181777954,505.0
21.587767124176025,504.0
21.587929010391235,504.0
21.58808708190918,504.0
21.62519121170044,502.0
21.62527894973755,500.0
21.625355005264282,499.0
21.625428915023804,498.0
21.66299796104431,498.0
21.663196086883545,497.0
21.66335892677307,497.0
21.663520097732544,498.0
21.70221519470215,498.0
21.702316999435425,499.0
21.702393054962158,500.0
21.70246720314026,501.0
21.738001108169556,502.0
21.73819637298584,502.0
21.738358974456787,502.0
21.738527059555054,502.0
21.73873209953308,502.0
21.791580200195312,502.0
21.791771173477173,504.0
21.791930198669434,504.0
21.82978916168213,506.0
21.82996416091919,509.0
21.830125093460083,513.0
21.830281972885132,517.0
21.86651110649109,523.0
21.86669421195984,530.0
21.86686420440674,534.0
21.867021083831787,539.0
21.902956008911133,543.0
21.903151035308838,545.0
21.903313159942627,545.0
21.906350135803223,543.0
21.906520128250122,540.0
21.906679153442383,534.0
21.906837940216064,528.0
21.906994104385376,523.0
21.909679174423218,517.0
21.909841299057007,511.0
21.909999132156372,506.0
21.913523197174072,502.0
21.91369915008545,497.0
21.913859128952026,494.0
21.914016008377075,492.0
21.91728711128235,489.0
21.91758108139038,487.0
21.91792607307434,486.0
21.920846223831177,487.0
21.921017169952393,487.0
21.921175003051758,488.0
21.921333074569702,491.0
21.921489238739014,492.0
21.925233125686646,495.0
21.925392150878906,498.0
21.925549030303955,500.0
21.92571210861206,502.0
21.925870180130005,504.0
21.976638317108154,505.0
21.97682809829712,506.0
21.976988077163696,506.0
21.980159044265747,506.0
21.98034405708313,506.0
21.980505228042603,505.0
21.980664014816284,505.0
22.01556706428528,504.0
22.01576018333435,504.0
22.015920162200928,505.0
22.053035974502563,504.0
22.053259134292603,505.0
22.053422212600708,504.0
22.05357527732849,502.0
22.090622901916504,501.0
22.090816974639893,499.0
22.09097695350647,499.0
22.091134309768677,498.0
22.141536951065063,496.0
22.141733169555664,497.0
22.14189314842224,499.0
22.142052173614502,499.0
22.14456820487976,499.0
22.144686222076416,500.0
22.14479899406433,500.0
22.147801160812378,500.0
22.147902250289917,501.0
22.147993087768555,502.0
22.14808225631714,501.0
22.148169994354248,500.0
22.14826536178589,500.0
22.1511652469635,501.0
22.151275157928467,502.0
22.15137004852295,504.0
22.15466594696045,507.0
22.15477228164673,510.0
22.154866218566895,511.0
22.15495800971985,516.0
22.15802526473999,519.0
22.15811824798584,523.0
22.15820813179016,526.0
22.158297061920166,528.0
22.16132616996765,529.0
22.212799072265625,533.0
22.216199159622192,534.0
22.250392198562622,536.0
22.2865252494812,534.0
22.322911024093628,531.0
22.36161518096924,527.0
22.39895009994507,523.0
22.43661904335022,518.0
22.436788082122803,515.0
22.43694519996643,511.0
22.49154305458069,507.0
22.491708278656006,504.0
22.49186420440674,500.0
22.492018222808838,497.0
22.52912402153015,495.0
22.529295206069946,493.0
22.529454231262207,492.0
22.565417289733887,492.0
22.565685987472534,492.0
22.565930128097534,494.0
22.566198110580444,495.0
22.566389083862305,497.0
22.56652021408081,499.0
22.60164499282837,502.0
22.638301134109497,504.0
22.67296004295349,507.0
22.709752082824707,508.0
22.7135112285614,508.0
22.717097997665405,508.0
22.720879077911377,508.0
22.72440004348755,508.0
22.7289981842041,508.0
22.72916293144226,507.0
22.729326009750366,505.0
22.78044319152832,504.0
22.78062105178833,502.0
22.780782222747803,501.0
22.84094214439392,500.0
22.841134071350098,499.0
22.841294050216675,498.0
22.841454029083252,497.0
22.877737283706665,497.0
22.877897262573242,497.0
22.878056287765503,497.0
22.878212213516235,497.0
22.91410207748413,497.0
22.914355993270874,498.0
22.914639234542847,498.0
22.9148211479187,498.0
22.950345993041992,498.0
22.950451135635376,497.0
22.950526237487793,497.0
22.98659920692444,496.0
22.98670220375061,495.0
22.98677921295166,495.0
22.98686718940735,496.0
22.98694109916687,497.0
23.02263617515564,498.0
23.022718906402588,501.0
23.022804260253906,503.0
23.02288508415222,504.0
23.022958040237427,507.0
23.05892825126648,510.0
23.05900526046753,515.0
23.05907917022705,519.0
23.094998121261597,524.0
23.095072984695435,528.0
23.09514594078064,532.0
23.09522008895874,535.0
23.098419904708862,536.0
23.098578214645386,535.0
23.0987331867218,535.0
23.101571083068848,532.0
23.10173726081848,530.0
23.10189414024353,526.0
23.10205101966858,521.0
23.10478901863098,517.0
23.1048641204834,513.0
23.104936122894287,509.0
23.108190298080444,505.0
23.111422300338745,502.0
23.11474919319153,499.0
23.192362070083618,496.0
23.19656801223755,496.0
23.23170304298401,496.0
23.269700050354004,494.0
23.26978302001953,495.0
23.269869089126587,494.0
23.26995611190796,496.0
23.270036935806274,498.0
23.270111083984375,500.0
23.27018427848816,502.0
23.27026915550232,503.0
23.274497032165527,504.0
23.274587154388428,506.0
23.274667978286743,507.0
23.30780529975891,507.0
23.307911157608032,507.0
23.307987213134766,507.0
23.308061122894287,507.0
23.345277309417725,506.0
23.34539532661438,505.0
23.345484018325806,503.0
23.345566987991333,501.0
23.38399910926819,499.0
23.38419198989868,497.0
23.384376049041748,496.0
23.384555101394653,497.0
23.385807037353516,497.0
23.385889053344727,498.0
23.385971307754517,498.0
23.389703273773193,498.0
23.389785051345825,497.0
23.389859199523926,497.0
23.389933109283447,496.0
23.391804218292236,496.0
23.391892194747925,496.0
23.391972064971924,496.0
23.395244121551514,495.0
23.398558139801025,495.0
23.40137815475464,496.0
23.42744493484497,497.0
23.430216312408447,498.0
23.43326711654663,500.0
23.436122179031372,503.0
23.439862966537476,506.0
23.43996524810791,510.0
23.440046072006226,515.0
23.442766189575195,519.0
23.442857265472412,524.0
23.442933082580566,528.0
23.443007946014404,532.0
23.44589614868164,536.0
23.445972204208374,539.0
23.446046352386475,541.0
23.500097036361694,542.0
23.503655195236206,542.0
23.503820180892944,540.0
23.504008293151855,534.0
23.539015293121338,529.0
23.53911805152893,524.0
23.53919816017151,518.0
23.539284229278564,512.0
23.576367139816284,507.0
23.576457977294922,502.0
23.57654309272766,497.0
23.576619148254395,494.0
23.613961219787598,492.0
23.65160322189331,491.0
23.689107179641724,490.0
23.72793412208557,491.0
23.73107624053955,491.0
23.73430824279785,493.0
23.73761010169983,495.0
23.74074697494507,496.0
23.743947982788086,497.0
23.80038809776306,499.0
23.83778214454651,500.0
23.875208139419556,501.0
23.91428804397583,502.0
23.950377225875854,504.0
23.987776041030884,506.0
24.026138067245483,507.0
24.02917504310608,507.0
24.02965807914734,506.0
24.029702186584473,505.0
24.03244113922119,504.0
24.03248620033264,503.0
24.032528162002563,503.0
24.03257417678833,502.0
24.035840034484863,502.0
24.03589415550232,501.0
24.035943269729614,502.0
24.035986185073853,501.0
24.039388179779053,499.0
24.03943395614624,499.0
24.039475917816162,499.0
24.039525270462036,500.0
24.042684078216553,500.0
24.04274606704712,501.0
24.04280114173889,500.0
24.045988082885742,499.0
24.099202156066895,499.0
24.136780977249146,499.0
24.174002170562744,498.0
24.211674213409424,498.0
24.249040126800537,497.0
24.288011074066162,499.0
24.28821611404419,501.0
24.288376092910767,504.0
24.288541316986084,506.0
24.288705110549927,510.0
24.288865089416504,517.0
24.323890209197998,524.0
24.32407021522522,531.0
24.32423233985901,537.0
24.326091051101685,544.0
24.326289176940918,549.0
24.326454162597656,551.0
24.326627016067505,553.0
24.32976508140564,551.0
24.32993507385254,547.0
24.3300940990448,543.0
24.33025813102722,537.0
24.333439111709595,531.0
24.33360004425049,524.0
24.333757162094116,518.0
24.33732295036316,512.0
24.337491273880005,508.0
24.33765196800232,502.0
24.337810277938843,494.0
24.337982892990112,489.0
24.341289281845093,487.0
24.344321966171265,486.0
24.397547960281372,487.0
24.40168333053589,488.0
24.436638355255127,491.0
24.4739933013916,494.0
24.51019597053528,497.0
24.54645299911499,500.0
24.546646118164062,503.0
24.54680609703064,505.0
24.58156418800354,507.0
24.581669092178345,508.0
24.58174729347229,509.0
24.581822156906128,510.0
24.619362115859985,509.0
24.61945915222168,508.0
24.61953616142273,507.0
24.619612216949463,507.0
24.656588077545166,505.0
24.65674328804016,504.0
24.656837224960327,504.0
24.656931161880493,503.0
24.691570281982422,503.0
24.691660165786743,500.0
24.691737174987793,499.0
24.727813243865967,497.0
24.72798800468445,496.0
24.728154182434082,495.0
24.72831630706787,494.0
24.764119148254395,495.0
24.801570177078247,495.0
24.840293169021606,496.0
24.87637495994568,498.0
24.91547918319702,499.0
24.952967166900635,499.0
24.956318140029907,498.0
24.959924936294556,499.0
24.963654279708862,499.0
24.963817358016968,499.0
24.963975191116333,499.0
24.9673330783844,499.0
24.967514038085938,499.0
24.9676730632782,503.0
24.96783208847046,506.0
24.971996307373047,512.0
24.972154140472412,519.0
24.97231101989746,526.0
24.972469091415405,533.0
25.023885011672974,541.0
25.024047136306763,548.0
25.02422022819519,554.0
25.061115264892578,558.0
25.061361074447632,559.0
25.061562061309814,558.0
25.061724185943604,555.0
25.09635305404663,551.0
25.096516132354736,545.0
25.096673011779785,539.0
25.13147807121277,531.0
25.131638050079346,522.0
25.13179636001587,513.0
25.131947994232178,506.0
25.132107973098755,499.0
25.170315980911255,493.0
25.170493125915527,487.0
25.170648097991943,484.0
25.208297967910767,482.0
25.208461046218872,481.0
25.20857810974121,481.0
25.208693981170654,483.0
25.248711109161377,485.0
25.248908042907715,489.0
25.24907112121582,491.0
25.25233006477356,493.0
25.252493143081665,495.0
25.25265097618103,496.0
25.252809286117554,499.0
25.255860090255737,500.0
25.256019115447998,502.0
25.256176233291626,503.0
25.25950312614441,503.0
25.259664058685303,503.0
25.259819984436035,503.0
25.25997519493103,503.0
25.26014733314514,502.0
25.26330590248108,500.0
25.263464212417603,500.0
25.263620138168335,500.0
25.268441200256348,501.0
25.268599033355713,501.0
25.268755197525024,503.0
25.268912076950073,503.0
25.31903910636902,505.0
25.356801986694336,507.0
25.39381217956543,507.0
25.431405067443848,506.0
25.469195127487183,504.0
25.506969213485718,504.0
25.54447627067566,503.0
25.54461407661438,504.0
25.544732093811035,504.0
25.544848203659058,503.0
25.54792809486389,502.0
25.54810118675232,502.0
25.548261165618896,501.0
25.54844903945923,500.0
25.551882028579712,499.0
25.55204129219055,498.0
25.5521981716156,496.0
25.55235505104065,495.0
25.55541706085205,495.0
25.555588245391846,495.0
25.555747032165527,497.0
25.555918216705322,497.0
25.558906078338623,500.0
25.559068202972412,503.0
25.559226036071777,507.0
25.563387155532837,512.0
25.56354308128357,518.0
25.563699960708618,524.0
25.563854217529297,531.0
25.61509132385254,538.0
25.65317702293396,546.0
25.690303087234497,552.0
25.72803521156311,557.0
25.76558518409729,559.0
25.80259108543396,558.0
25.839810132980347,555.0
25.83998417854309,548.0
25.840140104293823,542.0
25.840299129486084,535.0
25.840455293655396,527.0
25.844783067703247,520.0
25.844947338104248,513.0
25.845123052597046,505.0
25.845287084579468,500.0
25.848405122756958,496.0
25.848572254180908,490.0
25.848732233047485,489.0
25.84889006614685,487.0
25.852034091949463,487.0
25.85219717025757,487.0
25.852355003356934,487.0
25.855624198913574,489.0
25.855783224105835,491.0
25.8559410572052,494.0
25.856099128723145,497.0
25.85625433921814,501.0
25.859971046447754,504.0
25.860130071640015,504.0
25.860286951065063,504.0
25.912734985351562,505.0
25.94896411895752,504.0
25.987818956375122,503.0
26.025140047073364,502.0
26.062689065933228,502.0
26.10053014755249,501.0
26.139254093170166,501.0
26.13943314552307,500.0
26.139601230621338,500.0
26.13976502418518,500.0
26.13992428779602,500.0
26.142824172973633,500.0
26.142985343933105,499.0
26.14314317703247,498.0
26.146989107131958,498.0
26.147149085998535,498.0
26.14730715751648,498.0
26.147481203079224,497.0
26.14765214920044,497.0
26.15180516242981,496.0
26.151976108551025,496.0
26.152140140533447,496.0
26.155287981033325,498.0
26.155455112457275,497.0
26.155612230300903,498.0
26.155781269073486,499.0
26.1604220867157,499.0
26.160588026046753,498.0
26.160746097564697,498.0
26.16090416908264,497.0
26.20794916152954,498.0
26.243934154510498,499.0
26.281593084335327,500.0
26.319020986557007,502.0
26.35663414001465,503.0
26.39396619796753,505.0
26.43486523628235,507.0
26.435039043426514,511.0
26.435198307037354,515.0
26.43535828590393,521.0
26.4355251789093,525.0
26.438526153564453,531.0
26.438722133636475,536.0
26.4389009475708,541.0
26.4422390460968,545.0
26.442440271377563,548.0
26.44265913963318,550.0
26.442857265472412,550.0
26.445860147476196,548.0
26.446019172668457,546.0
26.44620418548584,541.0
26.44636106491089,536.0
26.449825048446655,529.0
26.44999599456787,523.0
26.45021629333496,515.0
26.454219102859497,509.0
26.45442509651184,503.0
26.454596042633057,498.0
26.454777002334595,494.0
26.506537914276123,489.0
26.50671100616455,487.0
26.54426598548889,487.0
26.581855058670044,487.0
26.619312047958374,487.0
26.656838178634644,488.0
26.69445300102234,490.0
26.74102020263672,491.0
26.741223096847534,493.0
26.74138593673706,494.0
26.741545915603638,496.0
26.74463200569153,498.0
26.74479627609253,501.0
26.74495220184326,503.0
26.745110988616943,504.0
26.748448133468628,505.0
26.748614072799683,507.0
26.748773097991943,508.0
26.751938104629517,508.0
26.752098083496094,508.0
26.752257108688354,507.0
26.752413272857666,505.0
26.755430221557617,505.0
26.755589246749878,503.0
26.755746126174927,502.0
26.755903005599976,502.0
26.759870290756226,502.0
26.76004195213318,501.0
26.760201930999756,500.0
26.760375022888184,499.0
26.812663078308105,497.0
26.850141286849976,497.0
26.88641619682312,497.0
26.924037218093872,497.0
26.962661266326904,498.0
27.000170946121216,497.0
27.042044162750244,498.0
27.04223322868347,498.0
27.042432069778442,497.0
27.042590141296387,497.0
27.042760133743286,496.0
27.046054124832153,496.0
27.046220064163208,497.0
27.046378135681152,498.0
27.046545267105103,498.0
27.0503671169281,499.0
27.05053210258484,499.0
27.05071520805359,499.0
27.050896167755127,499.0
27.055582284927368,499.0
27.055803060531616,500.0
27.055962085723877,499.0
27.176883220672607,499.0
27.177112102508545,500.0
27.177272081375122,499.0
27.177438259124756,499.0
27.177597284317017,501.0
27.177755117416382,502.0
27.177911043167114,504.0
27.178070068359375,505.0
27.17830514907837,506.0
27.178513288497925,510.0
27.178625106811523,513.0
27.178720951080322,518.0
27.17885994911194,523.0
27.17901110649109,529.0
27.179115056991577,534.0
27.179208278656006,540.0
27.179309129714966,543.0
27.179400205612183,545.0
27.179511070251465,547.0
27.1796772480011,547.0
27.179752111434937,545.0
27.179841995239258,542.0
27.17995524406433,539.0
27.180060148239136,534.0
27.18014621734619,528.0
27.18023705482483,521.0
27.180328130722046,517.0
27.1804141998291,512.0
27.180503129959106,507.0
27.1806161403656,503.0
27.180706024169922,500.0
27.18079423904419,498.0
27.180902242660522,495.0
27.18099308013916,494.0
27.18108320236206,493.0
27.181186199188232,493.0
27.181299924850464,493.0
27.181414127349854,493.0
27.18152117729187,494.0
27.18163514137268,495.0
27.181743144989014,496.0
27.181833267211914,497.0
27.212836027145386,499.0
27.213011264801025,499.0
27.213181257247925,500.0
27.250244140625,500.0
27.288856029510498,502.0
27.325401067733765,501.0
27.328503131866455,501.0
27.332024097442627,502.0
27.33507013320923,501.0
27.338661193847656,499.0
27.341872215270996,499.0
27.397741079330444,498.0
27.435397148132324,498.0
27.47262215614319,496.0
27.51033115386963,497.0
27.547831058502197,497.0
27.585483074188232,498.0
27.631433963775635,497.0
27.634713172912598,499.0
27.638473987579346,500.0
27.642223119735718,502.0
27.64586329460144,502.0
27.650280237197876,502.0
27.650442123413086,502.0
27.650641202926636,503.0
27.70297598838806,503.0
27.74012804031372,503.0
27.77778196334839,503.0
27.81511902809143,503.0
27.853235244750977,503.0
27.890648126602173,503.0
27.929893255233765,503.0
27.93006205558777,503.0
27.930278062820435,503.0
27.930472135543823,502.0
27.930639028549194,502.0
27.930846214294434,502.0
27.933619260787964,502.0
27.93379807472229,501.0
27.93399405479431,501.0
27.937284231185913,501.0
27.937461137771606,500.0
27.937644004821777,500.0
27.93780827522278,499.0
27.940893173217773,498.0
27.941081047058105,499.0
27.94123911857605,499.0
27.945045948028564,500.0
27.94523310661316,503.0
27.945391178131104,504.0
27.945566177368164,507.0
27.950117111206055,509.0
27.950300216674805,512.0
27.950453996658325,516.0
27.95063328742981,521.0
27.950788021087646,525.0
28.00017213821411,531.0
28.00035309791565,535.0
28.036473035812378,539.0
28.07268500328064,541.0
28.109333992004395,543.0
28.146360158920288,542.0
28.184139013290405,540.0
28.221042156219482,536.0
28.22120428085327,532.0
28.221362113952637,527.0
28.221559047698975,519.0
28.224749088287354,512.0
28.224942207336426,507.0
28.22514009475708,502.0
28.22844910621643,497.0
28.22861623764038,494.0
28.228774070739746,491.0
28.22893214225769,488.0
28.232049226760864,486.0
28.232232332229614,487.0
28.23242211341858,488.0
28.232591152191162,489.0
28.236119031906128,490.0
28.23631000518799,493.0
28.2364661693573,495.0
28.23663306236267,497.0
28.24068021774292,500.0
28.240849256515503,503.0
28.241027116775513,504.0
28.241194009780884,506.0
28.291444063186646,508.0
28.327940225601196,508.0
28.365379095077515,509.0
28.403003215789795,511.0
28.438976049423218,511.0
28.47548007965088,510.0
28.51273226737976,509.0
28.51290225982666,508.0
28.51306915283203,505.0
28.513233184814453,504.0
28.549821138381958,503.0
28.549959182739258,500.0
28.550084114074707,498.0
28.550201177597046,497.0
28.55299711227417,496.0
28.553125143051147,495.0
28.553283214569092,495.0
28.553426265716553,496.0
28.55626606941223,495.0
28.556450128555298,495.0
28.55663514137268,495.0
28.559585094451904,495.0
28.55976414680481,496.0
28.55996012687683,497.0
28.56013512611389,496.0
28.56313419342041,497.0
28.56331515312195,497.0
28.563485145568848,498.0
28.56364107131958,498.0
28.566313982009888,499.0
28.569512128829956,500.0
28.621726274490356,502.0
28.657864332199097,502.0
28.69540500640869,503.0
28.731576204299927,504.0
28.76800012588501,506.0
28.76811909675598,509.0
28.768197059631348,512.0
28.768307209014893,515.0
28.768383979797363,520.0
28.804302215576172,525.0
28.804524183273315,528.0
28.804700136184692,532.0
28.846712112426758,534.0
28.846889972686768,536.0
28.847012042999268,537.0
28.84714698791504,536.0
28.850028038024902,536.0
28.850176095962524,532.0
28.85029411315918,528.0
28.85344409942627,524.0
28.85361099243164,520.0
28.853769302368164,516.0
28.853924036026,512.0
28.857249975204468,508.0
28.85741114616394,504.0
28.857568979263306,499.0
28.857725143432617,496.0
28.86048913002014,493.0
28.86069393157959,491.0
28.86085820198059,489.0
28.86101508140564,488.0
28.863782167434692,489.0
28.867166996002197,489.0
28.921342134475708,491.0
28.924463033676147,492.0
28.927823066711426,494.0
28.931082010269165,495.0
28.93438720703125,498.0
28.93774104118347,500.0
28.93794822692871,502.0
28.938215255737305,504.0
28.94096612930298,505.0
28.94119906425476,507.0
28.94132924079895,507.0
28.94152808189392,507.0
28.944107055664062,508.0
28.944265365600586,507.0
28.94447422027588,507.0
28.944605112075806,505.0
28.94741916656494,504.0
28.947508096694946,503.0
28.947586059570312,501.0
28.950744152069092,498.0
28.95085310935974,495.0
28.95094609260559,493.0
28.951024055480957,491.0
28.954196214675903,490.0
28.954278230667114,492.0
28.954354286193848,494.0
28.954435110092163,496.0
28.95752716064453,499.0
28.960686206817627,501.0
28.96412706375122,504.0
28.96741032600403,504.0
28.97071099281311,504.0
28.974115133285522,504.0
28.977416276931763,504.0
28.980798959732056,503.0
28.98397421836853,503.0
28.987144231796265,501.0
29.007580280303955,500.0
29.01043200492859,502.0
29.013702154159546,504.0
29.016990184783936,506.0
29.020185232162476,510.0
29.023386240005493,513.0
29.043533086776733,517.0
29.04687213897705,522.0
29.05005717277527,528.0
29.076828241348267,532.0
29.08041024208069,536.0
29.08412218093872,537.0
29.088484048843384,538.0
29.110754013061523,537.0
29.114243030548096,536.0
29.118589162826538,532.0
29.155492067337036,529.0
29.159014225006104,525.0
29.162739992141724,520.0
29.166279315948486,515.0
29.170697927474976,511.0
29.190678119659424,507.0
29.194217205047607,504.0
29.199604988098145,501.0
29.223347187042236,498.0
29.22628116607666,496.0
29.230581045150757,493.0
29.2557213306427,491.0
29.259493112564087,491.0
29.26361608505249,492.0
29.267927169799805,492.0
29.29765820503235,494.0
29.301997184753418,495.0
29.30556321144104,496.0
29.30996608734131,497.0
29.33304715156555,501.0
29.33646321296692,504.0
29.341663122177124,504.0
29.3650062084198,506.0
29.36809802055359,508.0
29.37122917175293,508.0
29.374391078948975,507.0
29.39872097969055,505.0
29.401937246322632,505.0
29.405272006988525,505.0
29.45766019821167,504.0
29.46044898033142,503.0
29.46361207962036,501.0
29.46714210510254,499.0
29.470203161239624,497.0
29.47341799736023,496.0
29.493491172790527,496.0
29.496698141098022,495.0
29.49999213218689,494.0
29.503352165222168,494.0
29.53112816810608,494.0
29.534302234649658,495.0
29.537443161010742,494.0
29.563846111297607,494.0
29.56704616546631,495.0
29.570309162139893,496.0
29.59617304801941,497.0
29.59952402114868,497.0
29.599627017974854,497.0
29.602899312973022,496.0
29.6286301612854,496.0
29.63177800178528,497.0
29.634860038757324,497.0
29.661031246185303,498.0
29.664329290390015,500.0
29.66751718521118,502.0
29.69351029396057,504.0
29.69681406021118,508.0
29.7002432346344,512.0
29.75473403930664,515.0
29.758276224136353,521.0
29.762017965316772,526.0
29.765758275985718,529.0
29.76945400238037,534.0
29.773029088974,539.0
29.777403116226196,542.0
29.79557704925537,544.0
29.79921007156372,546.0
29.802845239639282,543.0
29.807219982147217,539.0
29.82935905456543,534.0
29.833094120025635,529.0
29.838255167007446,523.0
29.861161947250366,516.0
29.864476203918457,510.0
29.867923259735107,506.0
29.89356017112732,500.0
29.896965265274048,497.0
29.900389194488525,496.0
29.926067113876343,494.0
29.929282188415527,492.0
29.932549238204956,491.0
29.935761213302612,489.0
29.959757089614868,489.0
29.963027238845825,489.0
29.96631407737732,490.0
29.992587089538574,492.0
29.995524168014526,496.0
29.9986891746521,499.0
30.001819133758545,503.0
30.055183172225952,506.0
30.05799698829651,508.0
30.06113624572754,507.0
30.0644690990448,508.0
30.06760811805725,507.0
30.070755004882812,507.0
30.092381238937378,507.0
30.095744132995605,505.0
30.0990891456604,504.0
30.12511110305786,504.0
30.128297328948975,503.0
30.131449222564697,502.0
30.13460922241211,499.0
30.167630195617676,499.0
30.17071008682251,499.0
30.17431616783142,498.0
30.177463054656982,498.0
30.20237112045288,496.0
30.20555806159973,497.0
30.208946228027344,497.0
30.216177225112915,497.0
30.219340085983276,498.0
30.247417211532593,498.0
30.250935077667236,498.0
30.25405526161194,500.0
30.27981209754944,501.0
30.28311800956726,501.0
30.286373138427734,500.0
30.312316179275513,499.0
30.31558132171631,499.0
30.31876516342163,499.0
30.356227159500122,499.0
30.359215021133423,500.0
30.362343311309814,502.0
30.365972995758057,505.0
30.36932921409607,509.0
30.396080255508423,514.0
30.399554014205933,520.0
30.403985261917114,526.0
30.429368019104004,532.0
30.433588981628418,538.0
30.43773102760315,543.0
30.441777229309082,547.0
30.445475101470947,551.0
30.470994234085083,553.0
30.47510027885437,552.0
30.479952096939087,549.0
30.485942125320435,544.0
30.491265058517456,537.0
30.496135234832764,529.0
30.52861714363098,523.0
30.53235411643982,516.0
30.53716516494751,509.0
30.557388067245483,504.0
30.58840012550354,499.0
30.588608980178833,496.0
30.59263825416565,492.0
30.59674310684204,489.0
30.60175108909607,488.0
30.625643014907837,487.0
30.627511024475098,488.0
30.632978200912476,489.0
30.63987398147583,492.0
30.64387035369873,495.0
30.67105507850647,498.0
30.67462706565857,500.0
30.677351236343384,502.0
30.68122124671936,503.0
30.708917140960693,504.0
30.71184206008911,505.0
30.71686601638794,506.0
30.742133140563965,507.0
30.746713161468506,508.0
30.75044822692871,508.0
30.783619165420532,508.0
30.787098169326782,508.0
30.791497230529785,507.0
30.808063983917236,507.0
30.811760187149048,504.0
30.8154239654541,503.0
30.820037126541138,499.0
30.84181022644043,497.0
30.84550714492798,495.0
30.849918127059937,495.0
30.873677015304565,495.0
30.880300998687744,495.0
30.880463123321533,495.0
30.883549213409424,494.0
30.90731906890869,494.0
30.910678148269653,494.0
30.913960218429565,494.0
30.939839124679565,496.0
30.943323135375977,497.0
30.947107076644897,499.0
30.974786043167114,499.0
30.978086233139038,500.0
30.981210231781006,499.0
30.98443603515625,500.0
31.008502960205078,502.0
31.0118510723114,505.0
31.01516103744507,511.0
31.041166067123413,516.0
31.044575929641724,522.0
31.04731512069702,528.0
31.081271171569824,536.0
31.084354162216187,541.0
31.087444305419922,546.0
31.09078311920166,550.0
31.09402322769165,551.0
31.116088151931763,552.0
31.119407176971436,548.0
31.12264609336853,543.0
31.14853811264038,537.0
31.151952266693115,530.0
31.155221939086914,523.0
31.181159257888794,515.0
31.18442416191101,508.0
31.187657356262207,502.0
31.21341109275818,497.0
31.216778993606567,494.0
31.221702098846436,492.0
31.24686908721924,492.0
31.250473976135254,490.0
31.25486731529236,488.0
31.279369354248047,488.0
31.283002138137817,489.0
31.286673069000244,490.0
31.291024208068848,492.0
31.313086986541748,496.0
31.31722903251648,497.0
31.321240186691284,499.0
31.325602054595947,499.0
31.376259088516235,501.0
31.37958598136902,503.0
31.383357286453247,504.0
31.386995315551758,503.0
31.390583038330078,502.0
31.39496421813965,502.0
31.413097143173218,502.0
31.416813135147095,501.0
31.421215057373047,500.0
31.44806408882141,499.0
31.451773166656494,499.0
31.455403089523315,501.0
31.459813117980957,501.0
31.481823921203613,502.0
31.48546028137207,500.0
31.48994517326355,499.0
31.514302968978882,498.0
31.52174735069275,498.0
31.52192711830139,497.0
31.52619218826294,496.0
31.548112154006958,496.0
31.551826238632202,497.0
31.55617618560791,497.0
31.579807996749878,496.0
31.583287000656128,495.0
31.58781623840332,494.0
31.613072156906128,495.0
31.616779088974,497.0
31.621989250183105,499.0
31.679777145385742,503.0
31.682672262191772,507.0
31.685970306396484,511.0
31.68970513343811,515.0
31.69372797012329,520.0
31.697362184524536,526.0
31.700926303863525,531.0
31.705352306365967,537.0
31.726783990859985,543.0
31.730571031570435,548.0
31.73414921760559,551.0
31.738506078720093,552.0
31.760581254959106,551.0
31.764262199401855,548.0
31.768604278564453,543.0
31.793076038360596,538.0
31.796780109405518,531.0
31.8011691570282,524.0
31.825554132461548,517.0
31.82926106452942,510.0
31.832921028137207,505.0
31.837295055389404,500.0
31.85955500602722,495.0
31.86307406425476,492.0
31.86743402481079,488.0
31.89089608192444,486.0
31.8942289352417,485.0
31.897526025772095,484.0
31.923593282699585,487.0
31.927141189575195,489.0
31.930782318115234,494.0
31.935290098190308,496.0
31.975771188735962,499.0
31.97948408126831,503.0
31.98314118385315,505.0
31.986692190170288,507.0
31.990044116973877,508.0
32.011821031570435,509.0
32.01555013656616,510.0
32.01996898651123,510.0
32.04450297355652,509.0
32.04804015159607,508.0
32.052467346191406,507.0
32.089513301849365,506.0
32.09286403656006,506.0
32.09625005722046,505.0
32.099738121032715,502.0
32.10299801826477,499.0
32.12492322921753,496.0
32.12827706336975,494.0
32.13164019584656,493.0
32.1573371887207,493.0
32.16059899330139,492.0
32.163745164871216,493.0
32.16694402694702,494.0
32.191150188446045,496.0
32.19439506530762,498.0
32.19766616821289,499.0
32.22356200218201,499.0
32.226802110672,500.0
32.22999119758606,500.0
32.23319697380066,499.0
32.27766132354736,501.0
32.28089904785156,503.0
32.284250259399414,503.0
32.2874710559845,504.0
32.290688037872314,504.0
32.31354594230652,506.0
32.31698203086853,511.0
32.32037019729614,514.0
32.34694719314575,518.0
32.35045123100281,524.0
32.354151248931885,529.0
32.35779023170471,536.0
32.380043029785156,543.0
32.38329601287842,551.0
32.38661193847656,556.0
32.41238808631897,559.0
32.4158079624176,560.0
32.41904306411743,559.0
32.42224311828613,554.0
32.44606900215149,548.0
32.44948196411133,540.0
32.45293736457825,532.0
32.478569984436035,523.0
32.48199510574341,515.0
32.48539614677429,507.0
32.511390924453735,500.0
32.514297008514404,495.0
32.51746916770935,491.0
32.57772517204285,487.0
32.580422163009644,487.0
32.58371305465698,487.0
32.58710813522339,487.0
32.59046506881714,487.0
32.59364604949951,491.0
32.59683012962341,492.0
32.59999108314514,494.0
32.619853019714355,496.0
32.62320613861084,498.0
32.626697301864624,500.0
32.652475118637085,501.0
32.65579605102539,502.0
32.6591579914093,503.0
32.684988260269165,505.0
32.688114166259766,506.0
32.691344261169434,505.0
32.694573163986206,504.0
32.727550983428955,502.0
32.730877161026,499.0
32.73421001434326,499.0
32.73745608329773,497.0
32.762413024902344,497.0
32.765790939331055,496.0
32.77109122276306,496.0
32.79555821418762,497.0
32.802870988845825,498.0
32.80303406715393,498.0
32.80791211128235,499.0
32.831830978393555,500.0
32.83555197715759,501.0
32.83995532989502,500.0
32.87826418876648,501.0
32.88182806968689,502.0
32.88514304161072,502.0
32.88879108428955,503.0
32.89318013191223,502.0
32.912859201431274,501.0
32.9160041809082,501.0
32.920374155044556,501.0
32.94562315940857,502.0
32.94926834106445,502.0
32.95443296432495,502.0
32.978095054626465,503.0
32.981736183166504,504.0
32.985377073287964,504.0
32.989750146865845,504.0
33.011817932128906,504.0
33.01515531539917,506.0
33.01959228515625,509.0
33.02403712272644,512.0
33.048025131225586,517.0
33.05177903175354,522.0
33.05632519721985,527.0
33.065245151519775,535.0
33.09432125091553,541.0
33.097963094711304,548.0
33.101585149765015,555.0
33.10600018501282,558.0
33.12850213050842,560.0
33.13188600540161,561.0
33.13701510429382,559.0
33.17761421203613,555.0
33.18070602416992,547.0
33.18388605117798,538.0
33.18693399429321,527.0
33.189980268478394,517.0
33.21221208572388,508.0
33.215553998947144,500.0
33.21867609024048,494.0
33.22174620628357,488.0
33.24608826637268,486.0
33.24935698509216,484.0
33.25279116630554,483.0
33.2789990901947,483.0
33.2818341255188,485.0
33.28530311584473,489.0
33.31143116950989,493.0
33.314441204071045,495.0
33.317915201187134,498.0
33.34352731704712,500.0
33.346537351608276,503.0
33.36751103401184,505.0
33.37079119682312,506.0
33.37392711639404,506.0
33.377214193344116,505.0
33.40124797821045,505.0
33.40411615371704,506.0
33.40749716758728,506.0
33.43369817733765,503.0
33.44013524055481,502.0
33.44021415710449,500.0
33.443387269973755,498.0
33.47640109062195,499.0
33.479268074035645,499.0
33.48263502120972,498.0
33.48592829704285,497.0
33.510366916656494,496.0
33.513381242752075,497.0
33.516786098480225,497.0
33.542813301086426,497.0
33.545876264572144,496.0
33.549171924591064,497.0
33.57534909248352,498.0
33.57843828201294,497.0
33.58211398124695,498.0
33.58549618721008,499.0
33.61349296569824,500.0
33.61702919006348,500.0
33.6206431388855,502.0
33.64700794219971,502.0
33.65063500404358,503.0
33.65442204475403,502.0
33.65877914428711,500.0
33.68055605888367,499.0
33.68438124656677,498.0
33.68946814537048,498.0
33.71311116218567,498.0
33.7168231010437,499.0
33.72207832336426,501.0
33.78223419189453,503.0
33.7865571975708,504.0
33.82012319564819,507.0
33.85755014419556,510.0
33.895594120025635,514.0
33.9325532913208,519.0
33.97005105018616,523.0
34.00775218009949,529.0
34.04393815994263,535.0
34.08148121833801,541.0
34.12773394584656,548.0
34.165157079696655,552.0
34.20292019844055,556.0
34.24005198478699,556.0
34.27893018722534,554.0
34.31632924079895,551.0
34.35268712043762,545.0
34.39046502113342,538.0
34.42788124084473,531.0
34.47901511192322,525.0
34.51625609397888,516.0
34.519493103027344,509.0
34.522674322128296,502.0
34.52619409561157,496.0
34.52628517150879,491.0
34.526366233825684,487.0
34.529646158218384,485.0
34.52973413467407,483.0
34.52984023094177,482.0
34.5299391746521,483.0
34.53283405303955,485.0
34.53291606903076,488.0
34.53299617767334,492.0
34.53307318687439,496.0
34.536028146743774,498.0
34.53613018989563,502.0
34.53620719909668,504.0
34.53628206253052,506.0
34.59019899368286,507.0
34.59035801887512,508.0
34.59043502807617,508.0
34.59051012992859,506.0
34.59061908721924,505.0
34.59417128562927,504.0
34.594258308410645,504.0
34.59438729286194,504.0
34.62896919250488,505.0
34.62910318374634,505.0
34.62921118736267,504.0
34.62933301925659,502.0
34.66636419296265,501.0
34.666484117507935,500.0
34.66655993461609,499.0
34.704201221466064,499.0
34.70432996749878,499.0
34.7044563293457,497.0
34.704551219940186,497.0
34.70463013648987,496.0
34.74145197868347,496.0
34.74155807495117,497.0
34.74163818359375,498.0
34.778815031051636,499.0
34.778911113739014,499.0
34.77899527549744,500.0
34.77906918525696,502.0
34.829111099243164,503.0
34.82922124862671,502.0
34.82929825782776,502.0
34.829384326934814,503.0
34.866491079330444,503.0
34.86662030220032,502.0
34.86669731140137,501.0
34.90415000915527,501.0
34.9043071269989,501.0
34.904388189315796,502.0
34.9044771194458,504.0
34.90455603599548,506.0
34.90464210510254,509.0
34.94056510925293,512.0
34.940712213516235,517.0
34.940794229507446,523.0
34.94087314605713,528.0
34.976476192474365,536.0
35.01278519630432,543.0
35.04930830001831,549.0
35.08510422706604,555.0
35.123953104019165,557.0
35.18017625808716,557.0
35.21781516075134,551.0
35.25553607940674,546.0
35.29267501831055,540.0
35.292884349823,532.0
35.33007216453552,524.0
35.33025312423706,516.0
35.330422163009644,508.0
35.330631256103516,502.0
35.36640930175781,497.0
35.36658716201782,493.0
35.36679029464722,492.0
35.36698007583618,488.0
35.40705108642578,487.0
35.407180070877075,487.0
35.40726923942566,487.0
35.40735912322998,488.0
35.442870140075684,489.0
35.44299912452698,490.0
35.44307613372803,491.0
35.48023509979248,493.0
35.48041605949402,497.0
35.48057699203491,502.0
35.480735063552856,504.0
35.48091220855713,507.0
35.530516147613525,508.0
35.530686140060425,509.0
35.53084111213684,508.0
35.53099799156189,506.0
35.5667781829834,504.0
35.56693720817566,503.0
35.56709408760071,502.0
35.56725025177002,500.0
35.602556228637695,500.0
35.60271906852722,499.0
35.60287618637085,497.0
35.60303211212158,496.0
35.638588190078735,496.0
35.63876295089722,495.0
35.638920307159424,494.0
35.67527222633362,494.0
35.67544221878052,493.0
35.67560124397278,492.0
35.67575716972351,492.0
35.71298933029175,493.0
35.71317410469055,493.0
35.71334409713745,494.0
35.750324010849,495.0
35.75048613548279,495.0
35.750643253326416,495.0
35.75079822540283,496.0
35.78782796859741,496.0
35.78799891471863,496.0
35.7881600856781,497.0
35.788318157196045,498.0
35.82529306411743,499.0
35.82546925544739,500.0
35.825644969940186,502.0
35.82580304145813,503.0
35.825958251953125,505.0
35.826125144958496,506.0
35.8803391456604,507.0
35.88051414489746,510.0
35.88067412376404,512.0
35.9189932346344,514.0
35.91916632652283,516.0
35.919323205947876,519.0
35.91949105262756,523.0
35.95695424079895,528.0
35.957117319107056,534.0
35.957274198532104,538.0
35.95743012428284,540.0
35.99422907829285,540.0
35.994389057159424,539.0
35.99454617500305,536.0
35.99471616744995,531.0
36.03145217895508,528.0
36.031612157821655,523.0
36.03176808357239,518.0
36.03192400932312,513.0
36.068873167037964,510.0
36.069035053253174,505.0
36.0691921710968,501.0
36.10644197463989,497.0
36.106624126434326,494.0
36.10678291320801,492.0
36.106940269470215,491.0
36.14383506774902,491.0
36.14401316642761,492.0
36.144171953201294,493.0
36.18154311180115,494.0
36.181711196899414,497.0
36.18186807632446,499.0
36.18203806877136,503.0
36.18219518661499,504.0
36.230236291885376,506.0
36.23041105270386,507.0
36.23057198524475,506.0
36.23072934150696,507.0
36.26766610145569,505.0
36.26783108711243,504.0
36.267988204956055,504.0
36.268146276474,504.0
36.315163135528564,503.0
36.31533217430115,504.0
36.315486907958984,504.0
36.35142230987549,503.0
36.35159230232239,500.0
36.35175108909607,499.0
36.35192108154297,497.0
36.38902020454407,496.0
36.389188051223755,495.0
36.389360189437866,495.0
36.389524936676025,496.0
36.42654800415039,497.0
36.4267201423645,498.0
36.426878929138184,500.0
36.42704200744629,501.0
36.464460134506226,502.0
36.464622020721436,502.0
36.46477913856506,499.0
36.46493411064148,497.0
36.50137901306152,496.0
36.50155329704285,496.0
36.501710176467896,497.0
36.5390830039978,497.0
36.539263010025024,498.0
36.53942394256592,498.0
36.53958296775818,500.0
36.53973913192749,503.0
36.539905071258545,508.0
36.58980417251587,513.0
36.589964151382446,518.0
36.590121269226074,523.0
36.59335923194885,528.0
36.593518018722534,532.0
36.59367513656616,537.0
36.59383010864258,541.0
36.597177028656006,543.0
36.597334146499634,545.0
36.597501277923584,543.0
36.59766721725464,541.0
36.600722312927246,538.0
36.60088014602661,534.0
36.60103702545166,528.0
36.601192235946655,521.0
36.60425019264221,514.0
36.60440707206726,507.0
36.60456418991089,501.0
36.60872006416321,496.0
36.60887813568115,493.0
36.609042167663574,491.0
36.609201192855835,489.0
36.66160202026367,488.0
36.661784172058105,488.0
36.66194009780884,489.0
36.66209626197815,489.0
36.69793725013733,490.0
36.69811511039734,492.0
36.698272943496704,494.0
36.69843029975891,497.0
36.736677169799805,500.0
36.73685598373413,503.0
36.73701500892639,504.0
36.737173080444336,507.0
36.73733115196228,509.0
36.773765087127686,511.0
36.773927211761475,512.0
36.774080991744995,512.0
36.81147217750549,512.0
36.811628103256226,513.0
36.81178116798401,511.0
36.81195020675659,510.0
36.81210803985596,507.0
36.85883617401123,504.0
36.85899519920349,502.0
36.85915422439575,500.0
36.859310150146484,499.0
36.89384913444519,498.0
36.89401316642761,499.0
36.89417004585266,496.0
36.89432716369629,495.0
36.95037221908569,494.0
36.95056414604187,494.0
36.95072317123413,494.0
36.98770093917847,494.0
36.987870931625366,496.0
36.98803210258484,497.0
36.9881911277771,498.0
37.02531814575195,501.0
37.025511264801025,504.0
37.02567410469055,507.0
37.025846004486084,512.0
37.06277394294739,517.0
37.06298112869263,523.0
37.063143253326416,527.0
37.100213050842285,532.0
37.10031819343567,536.0
37.10039496421814,540.0
37.10047101974487,542.0
37.10054612159729,543.0
37.13815498352051,543.0
37.17524600028992,543.0
37.17543601989746,542.0
37.21157193183899,539.0
37.25095319747925,533.0
37.30340027809143,527.0
37.33832502365112,521.0
37.342167139053345,515.0
37.342345237731934,508.0
37.34250593185425,502.0
37.34266114234924,496.0
37.34283208847046,492.0
37.345946073532104,488.0
37.346116065979004,486.0
37.346405267715454,485.0
37.34990406036377,485.0
37.3500771522522,488.0
37.350239992141724,489.0
37.350407123565674,493.0
37.35356903076172,496.0
37.353732109069824,498.0
37.35389304161072,501.0
37.358484983444214,505.0
37.358647108078,508.0
37.358779191970825,511.0
37.358896255493164,513.0
37.3590190410614,513.0
37.359132289886475,512.0
37.41003918647766,511.0
37.410147190093994,510.0
37.410224199295044,508.0
37.446561098098755,506.0
37.44668006896973,504.0
37.44677925109863,502.0
37.4468731880188,500.0
37.44696402549744,499.0
37.48400402069092,498.0
37.484126329422,497.0
37.48422408103943,496.0
37.484318256378174,495.0
37.5214900970459,495.0
37.52165412902832,496.0
37.521770000457764,496.0
37.521862268447876,497.0
37.55897331237793,498.0
37.559072971343994,499.0
37.55914807319641,500.0
37.559221029281616,500.0
37.5964789390564,503.0
37.59657907485962,504.0
37.59665513038635,506.0
37.596729040145874,508.0
37.65134906768799,512.0
37.65144610404968,517.0
37.651522159576416,522.0
37.68798899650574,529.0
37.68809127807617,538.0
37.68816614151001,545.0
37.68824005126953,553.0
37.72242093086243,558.0
37.722522258758545,561.0
37.722602128982544,562.0
37.72267699241638,560.0
37.72560214996338,556.0
37.72568392753601,550.0
37.72576117515564,543.0
37.72583508491516,536.0
37.729273080825806,527.0
37.729369163513184,517.0
37.72944927215576,509.0
37.72953701019287,502.0
37.72961616516113,496.0
37.73289704322815,490.0
37.73298096656799,486.0
37.733055114746094,482.0
37.73312997817993,481.0
37.736414194107056,481.0
37.74091124534607,481.0
37.79635405540466,484.0
37.83261322975159,487.0
37.870243072509766,490.0
37.90774130821228,493.0
37.94525623321533,495.0
37.945356130599976,499.0
37.945433139801025,502.0
37.94550704956055,504.0
38.00147199630737,508.0
38.00157618522644,509.0
38.001652002334595,510.0
38.00172805786133,510.0
38.039016246795654,511.0
38.03911805152893,510.0
38.03919315338135,508.0
38.03926706314087,505.0
38.07757616043091,503.0
38.07766914367676,500.0
38.077744245529175,499.0
38.07782602310181,497.0
38.11511015892029,496.0
38.115211963653564,495.0
38.11528921127319,494.0
38.15271329879761,494.0
38.152815103530884,494.0
38.1528902053833,495.0
38.15296506881714,495.0
38.15303921699524,495.0
38.19024610519409,495.0
38.19034695625305,497.0
38.19042420387268,498.0
38.190500020980835,498.0
38.190593004226685,499.0
38.22761511802673,501.0
38.22771501541138,503.0
38.22779107093811,505.0
38.26549291610718,510.0
38.302623987197876,517.0
38.35522198677063,525.0
38.392614126205444,535.0
38.430519104003906,544.0
38.467724084854126,556.0
38.50517129898071,566.0
38.50527000427246,575.0
38.505346059799194,582.0
38.505419969558716,585.0
38.505494117736816,584.0
38.54146718978882,579.0
38.54157114028931,572.0
38.541648149490356,560.0
38.58014893531799,547.0
38.58025598526001,534.0
38.58033299446106,522.0
38.58040809631348,509.0
38.580482006073,498.0
38.6176393032074,489.0
38.61774206161499,483.0
38.617820262908936,478.0
38.6552460193634,476.0
38.65534734725952,476.0
38.6554229259491,475.0
38.655508279800415,476.0
38.655582904815674,478.0
38.65565800666809,481.0
38.70527219772339,482.0
38.70537614822388,485.0
38.70545411109924,487.0
38.741467237472534,490.0
38.74156999588013,493.0
38.74164605140686,496.0
38.741722106933594,498.0
38.77769708633423,500.0
38.777796030044556,502.0
38.777873277664185,504.0
38.777947187423706,505.0
38.81396198272705,505.0
38.81406807899475,505.0
38.81417226791382,504.0
38.814249992370605,502.0
38.85004019737244,500.0
38.8501341342926,499.0
38.85020899772644,499.0
38.850290298461914,499.0
38.85323214530945,500.0
38.853307247161865,500.0
38.85338592529297,501.0
38.856703996658325,502.0
38.85678315162659,502.0
38.85686016082764,502.0
38.85693621635437,502.0
38.86000609397888,502.0
38.860082149505615,502.0
38.86016011238098,501.0
38.860233306884766,500.0
38.86333107948303,501.0
38.86340618133545,502.0
38.86348009109497,503.0
38.86355400085449,504.0
38.86362814903259,504.0
38.866605043411255,504.0
38.86668109893799,505.0
38.86675500869751,504.0
38.866827964782715,504.0
38.92387914657593,504.0
38.92398118972778,504.0
38.92405819892883,504.0
38.961363315582275,503.0
38.96146607398987,503.0
38.961541175842285,504.0
38.9616162776947,504.0
38.9992733001709,506.0
38.99937415122986,506.0
38.99945020675659,509.0
38.999526262283325,512.0
39.05500102043152,518.0
39.05509924888611,527.0
39.05517315864563,539.0
39.055246114730835,553.0
39.0582640171051,569.0
39.058345317840576,585.0
39.05841827392578,601.0
39.0584921836853,614.0
39.061944007873535,623.0
39.062029123306274,627.0
39.06210923194885,623.0
39.065821170806885,615.0
39.06589722633362,602.0
39.06597113609314,586.0
39.066044092178345,566.0
39.069841146469116,546.0
39.06991910934448,526.0
39.06999492645264,508.0
39.070070028305054,494.0
39.070143938064575,481.0
39.07349228858948,474.0
39.07357716560364,467.0
39.07367396354675,464.0
39.07374906539917,462.0
39.077895164489746,463.0
39.07799029350281,465.0
39.078068017959595,468.0
39.07814311981201,473.0
39.13011813163757,478.0
39.130221128463745,483.0
39.130298137664795,489.0
39.16762900352478,494.0
39.16773295402527,499.0
39.167809009552,502.0
39.1678831577301,503.0
39.20549821853638,505.0
39.24296498298645,507.0
39.28008508682251,507.0
39.31761932373047,505.0
39.355103969573975,503.0
39.40761113166809,501.0
39.445183992385864,501.0
39.4452862739563,502.0
39.44536805152893,503.0
39.445446252822876,503.0
39.44552421569824,504.0
39.48173904418945,503.0
39.481839179992676,501.0
39.48191523551941,500.0
39.48199009895325,498.0
39.51784920692444,497.0
39.518033266067505,497.0
39.518203258514404,497.0
39.5183641910553,497.0
39.51852107048035,497.0
39.554017066955566,495.0
39.59057927131653,496.0
39.62885117530823,496.0
39.66633415222168,496.0
39.70394802093506,497.0
39.75770592689514,497.0
39.79405617713928,497.0
39.83164119720459,498.0
39.831847190856934,497.0
39.83200812339783,498.0
39.83216714859009,497.0
39.832329988479614,497.0
39.86902117729187,497.0
39.86921715736389,496.0
39.8693790435791,496.0
39.90629506111145,495.0
39.906501054763794,495.0
39.90666317939758,495.0
39.90684700012207,496.0
39.941691160202026,497.0
39.94191002845764,500.0
39.942070960998535,505.0
39.94223403930664,512.0
39.97957396507263,519.0
39.97980523109436,529.0
39.9799690246582,541.0
40.0176420211792,554.0
40.01789617538452,568.0
40.01807522773743,580.0
40.01823830604553,590.0
40.018426179885864,594.0
40.01863718032837,594.0
40.01887607574463,591.0
40.01912212371826,583.0
40.01929593086243,572.0
40.019458055496216,560.0
40.01962113380432,547.0
40.01978015899658,534.0
40.01993703842163,520.0
40.02011704444885,509.0
40.020277976989746,497.0
40.02043628692627,487.0
40.02068209648132,479.0
40.02085518836975,473.0
40.02101922035217,471.0
40.02117705345154,469.0
40.02133297920227,470.0
40.02150011062622,472.0
40.02164030075073,475.0
40.021754026412964,479.0
40.021867990493774,483.0
40.021982192993164,487.0
40.02209401130676,490.0
40.022215127944946,493.0
40.02232909202576,496.0
40.022454023361206,499.0
40.022568225860596,500.0
40.022682189941406,500.0
40.02279496192932,502.0
40.02291512489319,503.0
40.02303409576416,503.0
40.02314901351929,503.0
40.023263931274414,502.0
40.0233793258667,502.0
40.02349305152893,502.0
40.02360701560974,502.0
40.02372622489929,502.0
40.02383995056152,501.0
40.023977279663086,501.0
40.024051904678345,499.0
40.02412509918213,498.0
40.02419924736023,497.0
40.02427315711975,496.0
40.02435827255249,495.0
40.02443218231201,494.0
40.02450609207153,493.0
40.02457904815674,493.0
40.024659156799316,494.0
40.02473330497742,494.0
40.02480626106262,496.0
40.024880170822144,497.0
40.02495813369751,497.0
40.02503228187561,499.0
40.025105237960815,500.0
40.02517819404602,500.0
40.025251150131226,500.0
40.025323152542114,499.0
40.025397062301636,498.0
40.02547025680542,498.0
40.02721929550171,498.0
40.03133511543274,498.0
40.03482413291931,499.0
40.03794813156128,499.0
40.08919715881348,499.0
40.09237504005432,500.0
40.14672923088074,499.0
40.16307806968689,499.0
40.20192623138428,501.0
40.239097118377686,502.0
40.27720332145691,504.0
40.31473922729492,506.0
40.318294048309326,510.0
40.323259115219116,517.0
40.326460123062134,525.0
40.33039307594299,533.0
40.35850119590759,541.0
40.39469623565674,548.0
40.43221306800842,557.0
40.47059202194214,564.0
40.50808501243591,569.0
40.54344129562378,570.0
40.54728603363037,569.0
40.550782203674316,563.0
40.55494213104248,556.0
40.558923959732056,545.0
40.612812995910645,535.0
40.61307907104492,525.0
40.613243103027344,515.0
40.61341428756714,505.0
40.61664414405823,497.0
40.6168372631073,489.0
40.617000341415405,484.0
40.65099596977234,481.0
40.65125918388367,478.0
40.65142607688904,476.0
40.65159821510315,475.0
40.688876152038574,477.0
40.72564125061035,481.0
40.762362241744995,486.0
40.76566505432129,491.0
40.76922607421875,496.0
40.77280926704407,500.0
40.77297830581665,503.0
40.7731409072876,505.0
40.77732610702515,507.0
40.77749824523926,507.0
40.77765917778015,507.0
40.83264422416687,507.0
40.83283305168152,506.0
40.83299207687378,504.0
40.83315110206604,504.0
40.83330821990967,502.0
40.837034940719604,501.0
40.83721208572388,500.0
40.837401151657104,498.0
40.87176513671875,497.0
40.8719961643219,496.0
40.87215828895569,493.0
40.87232208251953,492.0
40.90784811973572,493.0
40.9503653049469,494.0
40.9864501953125,496.0
41.02266812324524,497.0
41.06124711036682,497.0
41.06430006027222,497.0
41.06447720527649,497.0
41.067574977874756,497.0
41.06774306297302,497.0
41.06790232658386,495.0
41.07093405723572,494.0
41.07112121582031,493.0
41.07130432128906,493.0
41.07149529457092,493.0
41.07167100906372,494.0
41.07416605949402,496.0
41.074387311935425,499.0
41.07455825805664,502.0
41.077351093292236,505.0
41.077561140060425,508.0
41.07773995399475,511.0
41.07793927192688,514.0
41.08063006401062,519.0
41.13501000404358,524.0
41.17266821861267,531.0
41.21013927459717,539.0
41.247533082962036,549.0
41.2851619720459,557.0
41.285340309143066,565.0
41.32035207748413,572.0
41.32051396369934,576.0
41.32062911987305,578.0
41.32074522972107,575.0
41.35919713973999,569.0
41.35940909385681,560.0
41.3595871925354,549.0
41.35974717140198,538.0
41.396438121795654,527.0
41.39661622047424,517.0
41.39678716659546,507.0
41.396950006484985,498.0
41.39988708496094,490.0
41.40006923675537,484.0
41.40026593208313,480.0
41.43523812294006,478.0
41.43536424636841,477.0
41.43545913696289,476.0
41.43554925918579,478.0
41.47309327125549,479.0
41.47329831123352,481.0
41.4734582901001,485.0
41.47362923622131,489.0
41.510194301605225,492.0
41.548779010772705,496.0
41.622756242752075,499.0
41.62293815612793,503.0
41.66120433807373,505.0
41.69801592826843,506.0
41.73575806617737,507.0
41.771499156951904,507.0
41.77168107032776,507.0
41.77189016342163,507.0
41.77207612991333,507.0
41.80762434005737,506.0
41.80780911445618,504.0
41.8080050945282,502.0
41.808212995529175,499.0
41.84392809867859,498.0
41.84411811828613,497.0
41.8442759513855,496.0
41.88197302818298,495.0
41.882150173187256,494.0
41.88223099708557,494.0
41.882347106933594,493.0
41.91925811767578,493.0
41.919466972351074,495.0
41.919639110565186,496.0
41.91980528831482,499.0
41.95674514770508,499.0
41.95703411102295,499.0
41.957200050354004,498.0
41.957388162612915,498.0
41.959686279296875,497.0
41.95987033843994,496.0
41.96006512641907,497.0
41.9630970954895,499.0
41.966352224349976,500.0
41.966530084609985,503.0
41.966689109802246,508.0
41.96882724761963,513.0
41.96898913383484,521.0
41.9691481590271,528.0
41.969306230545044,541.0
41.97181797027588,556.0
41.97199892997742,573.0
41.972161054611206,593.0
41.97231912612915,609.0
42.02929711341858,622.0
42.02951502799988,629.0
42.02971410751343,630.0
42.02994108200073,625.0
42.066479206085205,615.0
42.06664800643921,600.0
42.06680512428284,583.0
42.10909724235535,563.0
42.109286069869995,544.0
42.10945510864258,525.0
42.109628200531006,508.0
42.145116090774536,493.0
42.14528203010559,482.0
42.14549922943115,472.0
42.145655155181885,467.0
42.18191313743591,463.0
42.18221735954285,463.0
42.182377338409424,464.0
42.217698097229004,466.0
42.21791219711304,468.0
42.218125104904175,473.0
42.21831822395325,478.0
42.21853518486023,482.0
42.256343126297,487.0
42.25655007362366,492.0
42.256715059280396,496.0
42.25951528549194,500.0
42.25969099998474,504.0
42.25986194610596,506.0
42.26004505157471,506.0
42.26331901550293,505.0
42.26349425315857,504.0
42.26365518569946,504.0
42.26654410362244,504.0
42.26666712760925,502.0
42.266782999038696,500.0
42.2668993473053,498.0
42.26972317695618,497.0
42.26980805397034,495.0
42.26988625526428,493.0
42.2731032371521,492.0
42.273184061050415,491.0
42.27327108383179,489.0
42.27334499359131,488.0
42.27342104911804,489.0
42.326499223709106,490.0
42.36377215385437,492.0
42.40303993225098,494.0
42.440163135528564,496.0
42.478140115737915,496.0
42.51503610610962,497.0
42.552969217300415,497.0
42.553163051605225,498.0
42.55332398414612,498.0
42.55348205566406,499.0
42.556334018707275,501.0
42.556498289108276,502.0
42.55666708946228,503.0
42.556849241256714,502.0
42.559978008270264,501.0
42.560145139694214,500.0
42.56035304069519,499.0
42.56056022644043,498.0
42.56074118614197,495.0
42.563579082489014,494.0
42.563766956329346,494.0
42.563961029052734,494.0
42.567177295684814,495.0
42.567336320877075,496.0
42.567503213882446,499.0
42.56767821311951,502.0
42.57153010368347,507.0
42.571688175201416,513.0
42.57185411453247,520.0
42.624715089797974,530.0
42.66154432296753,543.0
42.69897413253784,558.0
42.73650002479553,577.0
42.77420902252197,597.0
42.81179428100586,616.0
42.849085330963135,631.0
42.849337100982666,639.0
42.84952116012573,637.0
42.849684953689575,630.0
42.84984493255615,617.0
42.85194110870361,600.0
42.85211420059204,581.0
42.852319955825806,561.0
42.852498292922974,541.0
42.85578012466431,523.0
42.855968952178955,505.0
42.85612916946411,490.0
42.856359243392944,478.0
42.85959029197693,468.0
42.85978317260742,461.0
42.8599591255188,456.0
42.86431622505188,455.0
42.86449098587036,456.0
42.864649295806885,459.0
42.86481308937073,461.0
42.868563175201416,465.0
42.86872696876526,468.0
42.8688850402832,472.0
42.86904335021973,476.0
42.9191780090332,481.0
42.955143213272095,486.0
42.99300193786621,489.0
43.0304319858551,493.0
43.06753206253052,496.0
43.105080127716064,498.0
43.1435341835022,499.0
43.143707275390625,500.0
43.14388608932495,502.0
43.144044160842896,502.0
43.14420199394226,504.0
43.14722514152527,504.0
43.14739108085632,504.0
43.14759111404419,504.0
43.15087890625,503.0
43.151058197021484,501.0
43.15121412277222,500.0
43.15137720108032,499.0
43.15415596961975,497.0
43.154330253601074,497.0
43.15448713302612,498.0
43.158164978027344,498.0
43.1583411693573,499.0
43.15849709510803,499.0
43.15868520736694,499.0
43.15885901451111,496.0
43.16261291503906,494.0
43.16279125213623,493.0
43.162965059280396,492.0
43.16317009925842,491.0
43.21574401855469,492.0
43.25129318237305,493.0
43.29006218910217,495.0
43.327574014663696,496.0
43.365473985672,496.0
43.403003215789795,496.0
43.44090795516968,496.0
43.44109010696411,496.0
43.4412522315979,497.0
43.441413164138794,498.0
43.44450092315674,499.0
43.444666147232056,500.0
43.44482922554016,499.0
43.4483802318573,498.0
43.44855809211731,498.0
43.44874024391174,497.0
43.448960065841675,497.0
43.4491171836853,497.0
43.452004194259644,497.0
43.4522020816803,500.0
43.45236611366272,503.0
43.457282066345215,509.0
43.4574511051178,515.0
43.45760726928711,522.0
43.45778203010559,532.0
43.4604651927948,544.0
43.46058917045593,560.0
43.460705041885376,576.0
43.46082401275635,593.0
43.51075506210327,611.0
43.547667264938354,624.0
43.58525514602661,630.0
43.622695207595825,629.0
43.6604061126709,623.0
43.697768211364746,610.0
43.744746923446655,591.0
43.74492001533508,572.0
43.74512219429016,552.0
43.74529814720154,533.0
43.74546813964844,515.0
43.7483971118927,497.0
43.748616218566895,484.0
43.748799085617065,473.0
43.74899411201477,466.0
43.7521550655365,462.0
43.75234317779541,460.0
43.75252723693848,459.0
43.75575494766235,461.0
43.75593423843384,464.0
43.756108045578,468.0
43.756280183792114,473.0
43.7595751285553,478.0
43.75975012779236,483.0
43.75990700721741,487.0
43.76010012626648,492.0
43.76526212692261,496.0
43.76543402671814,498.0
43.76566290855408,499.0
43.7658371925354,499.0
43.8164279460907,502.0
43.85376310348511,502.0
43.891247034072876,503.0
43.928935289382935,502.0
43.96663212776184,500.0
44.0039222240448,498.0
44.04231405258179,496.0
44.042598247528076,493.0
44.04281425476074,492.0
44.0430052280426,493.0
44.04553413391113,492.0
44.04571533203125,491.0
44.04591202735901,490.0
44.04615020751953,489.0
44.04909896850586,489.0
44.04926109313965,489.0
44.04942512512207,490.0
44.0527880191803,491.0
44.052958250045776,491.0
44.05311322212219,492.0
44.05336403846741,492.0
44.05353498458862,494.0
44.05719494819641,496.0
44.05736231803894,497.0
44.05752396583557,499.0
44.057690143585205,502.0
44.112436056137085,502.0
44.112643003463745,502.0
44.11284303665161,501.0
44.11303234100342,500.0
44.11744523048401,499.0
44.151647090911865,498.0
44.18941521644592,496.0
44.22633123397827,495.0
44.26376223564148,494.0
44.30133295059204,494.0
44.338359117507935,494.0
44.33852791786194,495.0
44.3386971950531,495.0
44.33886528015137,498.0
44.33909225463867,500.0
44.3418653011322,501.0
44.34202527999878,501.0
44.342201232910156,501.0
44.34239220619202,501.0
44.34566926956177,503.0
44.34584903717041,507.0
44.3460259437561,512.0
44.34621000289917,519.0
44.34930205345154,527.0
44.34951329231262,540.0
44.34968328475952,555.0
44.35479211807251,571.0
44.35495114326477,585.0
44.35511231422424,596.0
44.35526704788208,604.0
44.40676498413086,605.0
44.40701508522034,603.0
44.40721917152405,594.0
44.407382011413574,581.0
44.40987801551819,565.0
44.44403910636902,547.0
44.481401205062866,529.0
44.51897716522217,511.0
44.55642914772034,495.0
44.593852281570435,480.0
44.59406518936157,469.0
44.631312131881714,462.0
44.63152098655701,456.0
44.63168406486511,453.0
44.63185214996338,452.0
44.63458299636841,453.0
44.63470220565796,457.0
44.63484311103821,462.0
44.63817119598389,469.0
44.63825297355652,475.0
44.638331174850464,481.0
44.63841009140015,487.0
44.6416711807251,493.0
44.641746282577515,498.0
44.641823053359985,502.0
44.64190721511841,506.0
44.64530825614929,508.0
44.6454131603241,507.0
44.64549112319946,506.0
44.64556694030762,505.0
44.65028619766235,503.0
44.65045619010925,502.0
44.650614976882935,499.0
44.65077304840088,498.0
44.70296812057495,497.0
44.73996019363403,496.0
44.778088331222534,495.0
44.81513500213623,495.0
44.852510929107666,494.0
44.88999390602112,493.0
44.9271080493927,493.0
44.92728018760681,492.0
44.927462100982666,492.0
44.927693128585815,492.0
44.930713176727295,493.0
44.930899143218994,495.0
44.93108820915222,496.0
44.93129801750183,496.0
44.934587240219116,496.0
44.93475031852722,496.0
44.93492603302002,496.0
44.93512010574341,495.0
44.93815803527832,495.0
44.93834114074707,495.0
44.938536167144775,496.0
44.94174003601074,496.0
44.94191002845764,497.0
44.94207715988159,498.0
44.942246198654175,498.0
44.946463108062744,497.0
44.946666955947876,496.0
44.946842193603516,497.0
44.94699692726135,498.0
44.99871516227722,500.0
45.03644895553589,501.0
45.07415318489075,502.0
45.1113600730896,502.0
45.14918923377991,503.0
45.18682599067688,502.0
45.22412633895874,502.0
45.22432827949524,504.0
45.22455811500549,508.0
45.22474431991577,512.0
45.22492218017578,518.0
45.264404296875,524.0
45.264589071273804,531.0
45.26476430892944,539.0
45.29877305030823,544.0
45.29894399642944,547.0
45.299103021621704,551.0
45.29928493499756,551.0
45.337748289108276,551.0
45.3379271030426,549.0
45.33808994293213,544.0
45.338245153427124,538.0
45.375004291534424,530.0
45.3751962184906,521.0
45.375380992889404,512.0
45.41265821456909,505.0
45.41282415390015,499.0
45.413065910339355,493.0
45.41328001022339,489.0
45.41347408294678,486.0
45.450252056121826,486.0
45.48747706413269,484.0
45.52571415901184,485.0
45.56518030166626,486.0
45.599109172821045,487.0
45.634127140045166,490.0
45.67015314102173,491.0
45.670342206954956,493.0
45.67055630683899,496.0
45.67077302932739,498.0
45.70651316642761,500.0
45.70671319961548,504.0
45.706923961639404,505.0
45.70716428756714,508.0
45.742940187454224,509.0
45.74312615394592,510.0
45.74330425262451,512.0
45.780434131622314,510.0
45.78072214126587,510.0
45.780967235565186,508.0
45.78126907348633,507.0
45.78148818016052,506.0
45.818061113357544,504.0
45.818294048309326,500.0
45.81845307350159,498.0
45.855268239974976,496.0
45.85550904273987,494.0
45.85567116737366,494.0
45.855852127075195,492.0
45.85843014717102,491.0
45.85862708091736,490.0
45.85881328582764,489.0
45.859029054641724,489.0
45.861775159835815,490.0
45.86193299293518,489.0
45.86209011077881,489.0
45.86511206626892,492.0
45.86527109146118,494.0
45.86543822288513,495.0
45.86565113067627,496.0
45.868890047073364,496.0
45.86906123161316,497.0
45.86921811103821,500.0
45.8693790435791,503.0
45.8722140789032,507.0
45.8724160194397,510.0
45.872594118118286,513.0
45.87276911735535,518.0
45.927858114242554,523.0
45.928030252456665,527.0
45.928192138671875,532.0
45.92835807800293,537.0
45.96625208854675,542.0
45.96643400192261,544.0
45.96659302711487,545.0
46.00377106666565,546.0
46.00393509864807,544.0
46.00409126281738,542.0
46.00425910949707,537.0
46.0413761138916,531.0
46.041574239730835,525.0
46.041744232177734,517.0
46.078959226608276,510.0
46.07913017272949,504.0
46.07929801940918,497.0
46.07951211929321,492.0
46.079679012298584,486.0
46.116231203079224,483.0
46.11641597747803,481.0
46.11658215522766,482.0
46.157918214797974,483.0
46.158080101013184,483.0
46.158255100250244,486.0
46.1584210395813,489.0
46.16155695915222,492.0
46.16171908378601,495.0
46.16189622879028,496.0
46.16566014289856,497.0
46.16583800315857,500.0
46.16600704193115,502.0
46.166163206100464,504.0
46.169262170791626,505.0
46.169432163238525,506.0
46.169594049453735,507.0
46.16978931427002,507.0
46.17290902137756,507.0
46.17308211326599,506.0
46.173248052597046,505.0
46.17341423034668,503.0
46.178133964538574,500.0
46.17831325531006,500.0
46.17849612236023,499.0
46.22892212867737,500.0
46.266335010528564,500.0
46.30374312400818,500.0
46.341679096221924,499.0
46.37872815132141,497.0
46.41628909111023,497.0
46.45486617088318,497.0
46.455078125,496.0
46.45529818534851,496.0
46.45547413825989,495.0
46.45572209358215,494.0
46.45981216430664,496.0
46.46002817153931,497.0
46.460222244262695,500.0
46.460432052612305,504.0
46.46433615684509,505.0
46.46453309059143,509.0
46.464720249176025,514.0
46.46489429473877,519.0
46.53620195388794,525.0
46.53644633293152,531.0
46.53671598434448,539.0
46.536945104599,545.0
46.537161350250244,551.0
46.53738713264465,557.0
46.53761911392212,559.0
46.53781223297119,560.0
46.53793811798096,557.0
46.53807711601257,552.0
46.53819704055786,544.0
46.538313150405884,535.0
46.53845024108887,524.0
46.53859305381775,514.0
46.538788080215454,505.0
46.539056062698364,498.0
46.53922200202942,489.0
46.5393431186676,483.0
46.539458990097046,478.0
46.539576053619385,476.0
46.539693117141724,476.0
46.53982424736023,476.0
46.53995609283447,478.0
46.54007411003113,482.0
46.540165185928345,485.0
46.540255069732666,487.0
46.54034399986267,490.0
46.54054117202759,494.0
46.54066205024719,498.0
46.5407612323761,501.0
46.54085302352905,504.0
46.54094314575195,506.0
46.54103398323059,508.0
46.541261196136475,508.0
46.5414719581604,508.0
46.54163098335266,508.0
46.54172325134277,507.0
46.54181408882141,506.0
46.54196119308472,506.0
46.54219102859497,505.0
46.542283058166504,503.0
46.542360067367554,502.0
46.54243516921997,501.0
46.542511224746704,500.0
46.54262113571167,500.0
46.54275107383728,500.0
46.54285216331482,500.0
46.54292917251587,499.0
46.543023109436035,497.0
46.5686731338501,496.0
46.57180213928223,495.0
46.574965953826904,495.0
46.611616134643555,494.0
46.614442110061646,494.0
46.61781716346741,495.0
46.62096405029297,496.0
46.64643716812134,497.0
46.64940428733826,500.0
46.65260314941406,505.0
46.65580916404724,510.0
46.67971706390381,517.0
46.68354415893555,525.0
46.686928272247314,532.0
46.6905472278595,541.0
46.72008419036865,551.0
46.72316813468933,560.0
46.72687005996704,569.0
46.78451609611511,575.0
46.787912130355835,577.0
46.79165005683899,575.0
46.79539108276367,570.0
46.79913020133972,562.0
46.80263113975525,551.0
46.80707502365112,539.0
46.826661109924316,526.0
46.83038115501404,514.0
46.833927154541016,502.0
46.85917115211487,491.0
46.862828969955444,482.0
46.86639213562012,477.0
46.87488508224487,473.0
46.89710307121277,472.0
46.89720916748047,473.0
46.90051603317261,475.0
46.904017210006714,478.0
46.929731130599976,481.0
46.93291425704956,485.0
46.936156272888184,490.0
46.96227502822876,493.0
46.965567111968994,498.0
46.96893000602722,500.0
46.994736194610596,503.0
46.99784803390503,505.0
47.00098919868469,507.0
47.00420022010803,507.0
47.06140422821045,508.0
47.06446814537048,508.0
47.068116188049316,508.0
47.071906089782715,508.0
47.07534718513489,506.0
47.078548192977905,504.0
47.08162713050842,501.0
47.084859132766724,499.0
47.10482096672058,499.0
47.10814309120178,499.0
47.111451148986816,499.0
47.13732194900513,501.0
47.14064002037048,501.0
47.14405918121338,500.0
47.17055892944336,499.0
47.17412614822388,497.0
47.178622245788574,496.0
47.20314431190491,496.0
47.206624031066895,494.0
47.21098327636719,493.0
47.23542618751526,494.0
47.23924398422241,496.0
47.24353814125061,498.0
47.2679762840271,500.0
47.27161717414856,503.0
47.27599835395813,507.0
47.300591230392456,513.0
47.30427432060242,520.0
47.30805015563965,530.0
47.31176495552063,541.0
47.316089153289795,554.0
47.36164927482605,566.0
47.365127086639404,576.0
47.368693113327026,583.0
47.372233152389526,586.0
47.37656331062317,585.0
47.39424014091492,581.0
47.39793300628662,573.0
47.401556968688965,563.0
47.40606713294983,550.0
47.411078214645386,537.0
47.439295053482056,525.0
47.44288206100464,513.0
47.44757914543152,503.0
47.471818923950195,494.0
47.47536611557007,486.0
47.47982835769653,479.0
47.504162073135376,474.0
47.5078661441803,472.0
47.51592016220093,472.0
47.51603412628174,473.0
47.537978172302246,476.0
47.54158306121826,480.0
47.54675316810608,483.0
47.55800819396973,488.0
47.563356161117554,492.0
47.58924698829651,496.0
47.5928430557251,500.0
47.59724020957947,502.0
47.62183403968811,503.0
47.6257700920105,504.0
47.63024616241455,503.0
47.66533923149109,502.0
47.66877222061157,501.0
47.67232418060303,502.0
47.67661428451538,504.0
47.699251890182495,503.0
47.70283222198486,504.0
47.70805811882019,503.0
47.73184299468994,501.0
47.73911118507385,499.0
47.73920011520386,496.0
47.74265909194946,495.0
47.74716305732727,493.0
47.766770124435425,493.0
47.77047610282898,492.0
47.77484893798828,493.0
47.79915809631348,493.0
47.80279326438904,496.0
47.80716514587402,497.0
47.83178424835205,499.0
47.83544325828552,501.0
47.839864015579224,500.0
47.86347413063049,500.0
47.86691498756409,501.0
47.87137198448181,502.0
47.89577126502991,505.0
47.899081230163574,511.0
47.904381275177,517.0
47.96118712425232,524.0
47.9644660949707,533.0
47.9679741859436,544.0
47.97171211242676,557.0
47.975484132766724,573.0
47.979146003723145,587.0
47.98288106918335,600.0
47.98638200759888,609.0
47.99074912071228,615.0
48.01081919670105,615.0
48.015239238739014,609.0
48.03680109977722,599.0
48.040441036224365,583.0
48.044257164001465,564.0
48.048317193984985,544.0
48.06868124008179,526.0
48.073524951934814,508.0
48.07844805717468,492.0
48.12859535217285,478.0
48.131486892700195,467.0
48.13458514213562,459.0
48.13830304145813,454.0
48.14183497428894,452.0
48.14704418182373,454.0
48.170005083084106,455.0
48.1735360622406,460.0
48.1737060546875,467.0
48.1781439781189,472.0
48.200520277023315,479.0
48.204172134399414,487.0
48.20856499671936,492.0
48.23302221298218,496.0
48.236716985702515,500.0
48.24110412597656,504.0
48.26554012298584,504.0
48.270257234573364,507.0
48.273521184921265,506.0
48.27796125411987,505.0
48.299262285232544,503.0
48.30294704437256,503.0
48.30733108520508,500.0
48.33173704147339,499.0
48.33541512489319,498.0
48.339805126190186,497.0
48.36428999900818,496.0
48.372483015060425,494.0
48.37266421318054,491.0
48.37665414810181,489.0
48.432037115097046,490.0
48.43551015853882,491.0
48.43925499916077,492.0
48.4429931640625,495.0
48.44675302505493,497.0
48.45031023025513,500.0
48.454708099365234,502.0
48.47425317764282,501.0
48.47765803337097,502.0
48.4820442199707,503.0
48.505845069885254,504.0
48.509273052215576,505.0
48.51254606246948,508.0
48.51582717895508,513.0
48.53983426094055,522.0
48.54327702522278,535.0
48.546550989151,551.0
48.57314610481262,569.0
48.57734513282776,589.0
48.58074712753296,608.0
48.585201263427734,623.0
48.606717109680176,632.0
48.610488176345825,635.0
48.61483311653137,631.0
48.63948106765747,622.0
48.64301013946533,607.0
48.64740014076233,589.0
48.674368143081665,568.0
48.679686069488525,547.0
48.68303322792053,527.0
48.729414224624634,508.0
48.733049154281616,492.0
48.736802101135254,477.0
48.74049401283264,468.0
48.74407601356506,462.0
48.74848198890686,460.0
48.76815891265869,460.0
48.77177119255066,462.0
48.77701115608215,465.0
48.80047416687012,469.0
48.80430626869202,474.0
48.8080530166626,480.0
48.811772108078,484.0
48.81620907783508,489.0
48.83800220489502,495.0
48.84169912338257,499.0
48.84612202644348,503.0
48.87053894996643,507.0
48.874200105667114,508.0
48.878592014312744,510.0
48.90293598175049,511.0
48.90665006637573,510.0
48.91103219985962,508.0
48.93549728393555,505.0
48.93914604187012,503.0
48.94358015060425,500.0
48.96805119514465,497.0
48.97182512283325,496.0
48.975558280944824,495.0
48.97995209693909,494.0
49.03069996833801,494.0
49.03428030014038,493.0
49.03797912597656,492.0
49.04187631607056,492.0
49.04618310928345,492.0
49.05143594741821,493.0
49.0730402469635,494.0
49.073214292526245,495.0
49.07670307159424,497.0
49.0824191570282,498.0
49.09604024887085,499.0
49.099255084991455,501.0
49.1044180393219,502.0
49.12918400764465,504.0
49.13295316696167,504.0
49.137304067611694,506.0
49.17190718650818,506.0
49.17564415931702,505.0
49.17954707145691,505.0
49.184606313705444,507.0
49.206061124801636,508.0
49.2092010974884,510.0
49.21234607696533,512.0
49.215514183044434,517.0
49.23971104621887,525.0
49.24327111244202,537.0
49.246642112731934,554.0
49.274760246276855,575.0
49.27797031402588,599.0
49.28116512298584,623.0
49.28439211845398,643.0
