3.0994415283203125e-06,609.0
0.09846019744873047,608.0
0.1273479461669922,608.0
0.1309511661529541,609.0
0.13533592224121094,610.0
0.15973711013793945,615.0
0.16295909881591797,624.0
0.16632914543151855,638.0
0.19241905212402344,655.0
0.19588923454284668,676.0
0.19958090782165527,701.0
0.20399212837219238,728.0
0.25635719299316406,757.0
0.25991201400756836,784.0
0.264207124710083,808.0
0.26752805709838867,828.0
0.2707672119140625,838.0
0.27409911155700684,840.0
0.3031120300292969,834.0
0.3075442314147949,822.0
0.31108808517456055,805.0
0.31464219093322754,784.0
0.31905198097229004,760.0
0.33973193168640137,739.0
0.3434171676635742,718.0
0.3470420837402344,699.0
0.3514561653137207,682.0
0.37973618507385254,668.0
0.38337016105651855,656.0
0.38776516914367676,646.0
0.4122471809387207,638.0
0.41588711738586426,632.0
0.419492244720459,627.0
0.42391014099121094,624.0
0.4484860897064209,622.0
0.4521331787109375,622.0
0.45653200149536133,623.0
0.48113322257995605,624.0
0.4846920967102051,627.0
0.48906803131103516,630.0
0.5134809017181396,633.0
0.5171442031860352,638.0
0.5211372375488281,642.0
0.526374101638794,645.0
0.5561630725860596,648.0
0.5604231357574463,649.0
0.5647051334381104,649.0
0.5898871421813965,648.0
0.590062141418457,647.0
0.5934689044952393,646.0
0.597785234451294,644.0
0.6222550868988037,640.0
0.6258981227874756,637.0
0.6295721530914307,634.0
0.6338760852813721,631.0
0.6560451984405518,626.0
0.6597301959991455,623.0
0.6641232967376709,619.0
0.6885230541229248,616.0
0.6921741962432861,615.0
0.6965420246124268,614.0
0.7210249900817871,614.0
0.7246642112731934,613.0
0.7296161651611328,613.0
0.7534940242767334,611.0
0.7571661472320557,611.0
0.7608461380004883,611.0
0.7651782035827637,610.0
0.7874140739440918,609.0
0.7916321754455566,610.0
0.795957088470459,610.0
0.8539490699768066,610.0
0.8575470447540283,610.0
0.8612432479858398,611.0
0.8650550842285156,611.0
0.8686542510986328,611.0
0.8722319602966309,611.0
0.8758399486541748,611.0
0.8960151672363281,610.0
0.8992800712585449,611.0
0.9025821685791016,611.0
0.9074480533599854,611.0
0.9450821876525879,611.0
0.9487149715423584,611.0
0.9522960186004639,611.0
0.9558351039886475,611.0
0.9610612392425537,611.0
0.9925210475921631,613.0
0.9961521625518799,620.0
0.999758243560791,629.0
1.00331711769104,642.0
1.0084872245788574,661.0
1.0285120010375977,683.0
1.032202959060669,709.0
1.0365712642669678,737.0
1.0611982345581055,764.0
1.064697265625,791.0
1.0698292255401611,813.0
1.0960283279418945,828.0
1.0996479988098145,835.0
1.1032860279083252,836.0
1.1076841354370117,830.0
1.1551182270050049,816.0
1.1587390899658203,798.0
1.1625192165374756,775.0
1.1661250591278076,752.0
1.1697442531585693,729.0
1.1741530895233154,707.0
1.1915531158447266,688.0
1.194831132888794,673.0
1.198173999786377,660.0
1.2025561332702637,646.0
1.2260422706604004,636.0
1.229675054550171,629.0
1.2340271472930908,622.0
1.2584640979766846,618.0
1.2621431350708008,617.0
1.2664990425109863,617.0
1.2903192043304443,618.0
1.2997429370880127,622.0
1.3034110069274902,627.0
1.3077812194824219,631.0
1.3322722911834717,637.0
1.3359510898590088,641.0
1.34029221534729,647.0
1.3647642135620117,651.0
1.3684101104736328,655.0
1.3727631568908691,657.0
1.3965840339660645,659.0
1.3967759609222412,658.0
1.399928092956543,657.0
1.4041330814361572,654.0
1.455090045928955,651.0
1.4586539268493652,647.0
1.462360143661499,643.0
1.4660670757293701,639.0
1.469691276550293,634.0
1.474959135055542,630.0
1.4915931224822998,627.0
1.4950861930847168,624.0
1.4990651607513428,622.0
1.5165622234344482,620.0
1.5199811458587646,619.0
1.523341178894043,618.0
1.584205150604248,617.0
1.5879511833190918,616.0
1.617238998413086,614.0
1.62101411819458,614.0
1.624809980392456,612.0
1.6285381317138672,610.0
1.6322550773620605,608.0
1.6360371112823486,608.0
1.639770269393921,610.0
1.6434550285339355,610.0
1.6469900608062744,610.0
1.6514172554016113,611.0
1.6709911823272705,614.0
1.674504041671753,615.0
1.6788861751556396,614.0
1.7040581703186035,614.0
1.7073032855987549,613.0
1.7105300426483154,612.0
1.7138781547546387,613.0
1.7561991214752197,614.0
1.7598929405212402,615.0
1.763585090637207,621.0
1.7671270370483398,630.0
1.771522045135498,643.0
1.792485237121582,661.0
1.7961680889129639,684.0
1.7998220920562744,709.0
1.8031752109527588,736.0
1.8253300189971924,764.0
1.8288171291351318,788.0
1.8321542739868164,807.0
1.8779911994934082,822.0
1.8813519477844238,828.0
1.8846590518951416,828.0
1.88795804977417,822.0
1.8912150859832764,808.0
1.9240729808807373,789.0
1.9274201393127441,768.0
1.9309191703796387,744.0
1.9342122077941895,721.0
1.9374620914459229,699.0
1.9609911441802979,678.0
1.9646730422973633,661.0
1.9690570831298828,648.0
1.9936230182647705,636.0
1.997128963470459,627.0
2.001422166824341,620.0
2.0538501739501953,614.0
2.058180093765259,611.0
2.0583691596984863,609.0
2.061824083328247,609.0
2.065225124359131,610.0
2.0688719749450684,612.0
2.073296070098877,617.0
2.0910069942474365,622.0
2.0950253009796143,628.0
2.099269151687622,636.0
2.103640079498291,642.0
2.1605310440063477,647.0
2.1643080711364746,651.0
2.2086291313171387,653.0
2.233654022216797,654.0
2.237265110015869,653.0
2.2410099506378174,652.0
2.2448201179504395,649.0
2.2485320568084717,645.0
2.252279043197632,642.0
2.2560460567474365,638.0
2.259949207305908,632.0
2.263561964035034,628.0
2.267359972000122,624.0
2.2708840370178223,620.0
2.274562120437622,616.0
2.278109073638916,614.0
2.2825281620025635,612.0
2.30224609375,611.0
2.3059520721435547,611.0
2.31099796295166,610.0
2.3549959659576416,609.0
2.3586831092834473,608.0
2.3623671531677246,608.0
2.3660831451416016,607.0
2.3695831298828125,608.0
2.3739261627197266,607.0
2.392273187637329,607.0
2.3959250450134277,607.0
2.4004950523376465,607.0
2.429091215133667,607.0
2.432068109512329,607.0
2.4353740215301514,608.0
2.4386942386627197,609.0
2.4388771057128906,609.0
2.462820053100586,609.0
2.4660589694976807,611.0
2.471823215484619,611.0
2.496195077896118,612.0
2.4997971057891846,613.0
2.504122257232666,614.0
2.5286991596221924,614.0
2.532136917114258,613.0
2.5366220474243164,612.0
2.5610690116882324,612.0
2.564728021621704,614.0
2.569143056869507,617.0
2.5937180519104004,623.0
2.597234010696411,635.0
2.6015942096710205,653.0
2.657642126083374,675.0
2.661194086074829,700.0
2.6648850440979004,727.0
2.6685681343078613,756.0
2.6721842288970947,784.0
2.67594313621521,809.0
2.679610252380371,829.0
2.6831631660461426,840.0
2.6875431537628174,844.0
2.7061691284179688,840.0
2.7096781730651855,829.0
2.7140369415283203,812.0
2.781710147857666,790.0
2.7850632667541504,766.0
2.7885382175445557,741.0
2.7918059825897217,717.0
2.7950870990753174,695.0
2.798971176147461,675.0
2.802730083465576,659.0
2.8064792156219482,645.0
2.810292959213257,635.0
2.834743022918701,629.0
2.83841609954834,624.0
2.842426061630249,621.0
2.8476710319519043,619.0
2.869809865951538,617.0
2.8735570907592773,617.0
2.87723708152771,617.0
2.8809640407562256,619.0
2.886121988296509,621.0
2.9150331020355225,624.0
2.9185569286346436,628.0
2.9229140281677246,633.0
2.9550600051879883,638.0
2.9585671424865723,643.0
2.962285041809082,647.0
2.9666991233825684,647.0
2.9898910522460938,649.0
2.9935061931610107,650.0
2.9978721141815186,650.0
3.0224101543426514,647.0
3.025689125061035,646.0
3.0290770530700684,643.0
3.0340030193328857,640.0
3.0629520416259766,637.0
3.0675671100616455,633.0
3.072803020477295,629.0
3.0965421199798584,624.0
3.099785089492798,620.0
3.103257179260254,615.0
3.105792999267578,612.0
3.1092259883880615,608.0
3.137824058532715,607.0
3.1410610675811768,606.0
3.1451539993286133,605.0
3.1722261905670166,602.0
3.1759681701660156,603.0
3.179892063140869,604.0
3.183211088180542,604.0
3.2050859928131104,604.0
3.2083892822265625,604.0
3.211738109588623,604.0
3.2537431716918945,604.0
3.2574450969696045,603.0
3.2610418796539307,603.0
3.2646069526672363,602.0
3.2689871788024902,603.0
3.289776086807251,604.0
3.293799877166748,605.0
3.2974071502685547,606.0
3.3017642498016357,608.0
3.3235390186309814,609.0
3.3271570205688477,609.0
3.3306632041931152,609.0
3.3561971187591553,609.0
3.3598320484161377,609.0
3.3640241622924805,608.0
3.3876841068267822,608.0
3.390949249267578,608.0
3.3942489624023438,607.0
3.4190189838409424,609.0
3.4222991466522217,614.0
3.4255311489105225,624.0
3.4767439365386963,639.0
3.480130195617676,659.0
3.483335256576538,683.0
3.486631155014038,710.0
3.504315137863159,739.0
3.507894992828369,766.0
3.5556039810180664,793.0
3.5588290691375732,815.0
3.561986207962036,830.0
3.5657410621643066,838.0
3.614021062850952,838.0
3.6178512573242188,831.0
3.631066083908081,817.0
3.6347861289978027,798.0
3.638566255569458,775.0
3.6418581008911133,750.0
3.6453840732574463,724.0
3.6491880416870117,699.0
3.6528360843658447,678.0
3.656548261642456,659.0
3.6629250049591064,643.0
3.7092339992523193,631.0
3.7126142978668213,621.0
3.716057062149048,614.0
3.719388961791992,609.0
3.722975015640259,607.0
3.7267870903015137,607.0
3.7303030490875244,608.0
3.734157085418701,610.0
3.756179094314575,612.0
3.7597241401672363,617.0
3.7635531425476074,623.0
3.7670910358428955,627.0
3.7714428901672363,632.0
3.791062116622925,637.0
3.7946722507476807,640.0
3.798236131668091,644.0
3.8026230335235596,647.0
3.857532262802124,648.0
3.8611700534820557,647.0
3.864943265914917,646.0
3.8686442375183105,645.0
3.8722290992736816,643.0
3.8765580654144287,640.0
3.8947670459747314,637.0
3.8984360694885254,634.0
3.9020400047302246,632.0
3.9063942432403564,627.0
3.929431200027466,624.0
3.9328560829162598,619.0
3.936393976211548,616.0
3.940753221511841,611.0
3.9660990238189697,608.0
3.969722270965576,607.0
3.974091053009033,606.0
3.9986209869384766,603.0
4.002204179763794,604.0
4.006638050079346,603.0
4.031046152114868,602.0
4.0346760749816895,603.0
4.039853096008301,603.0
4.063557147979736,603.0
4.067170143127441,603.0
4.070842266082764,604.0
4.075244188308716,604.0
4.097287178039551,604.0
4.100939989089966,605.0
4.105353116989136,606.0
4.166244268417358,606.0
4.169783115386963,606.0
4.173334121704102,608.0
4.177268981933594,608.0
4.18165397644043,610.0
4.188507080078125,610.0
4.192193031311035,611.0
4.195833206176758,611.0
4.200184106826782,611.0
4.222249984741211,611.0
4.22599196434021,615.0
4.229675054550171,623.0
4.233789920806885,635.0
4.255246162414551,652.0
4.258979082107544,673.0
4.262940168380737,696.0
4.268850088119507,723.0
4.297905921936035,750.0
4.302467107772827,776.0
4.306942939758301,800.0
4.332267999649048,817.0
4.335954189300537,829.0
4.340344190597534,835.0
4.369805097579956,831.0
4.373546123504639,821.0
4.377245903015137,804.0
4.380786895751953,783.0
4.38602614402771,759.0
4.404790163040161,734.0
4.4084460735321045,710.0
4.412775278091431,686.0
4.455032110214233,665.0
4.459522008895874,648.0
4.46294093132019,633.0
4.466607093811035,621.0
4.470693111419678,612.0
4.493677139282227,605.0
4.497246026992798,601.0
4.500765085220337,600.0
4.505245923995972,600.0
4.510511159896851,603.0
4.538711071014404,608.0
4.542237043380737,614.0
4.547875165939331,620.0
4.576641082763672,627.0
4.579803228378296,633.0
4.583511114120483,639.0
4.587891101837158,646.0
4.61106014251709,649.0
4.61468505859375,653.0
4.618670225143433,656.0
4.6219141483306885,655.0
4.695631265640259,654.0
4.698896169662476,654.0
4.702927112579346,649.0
4.706545114517212,645.0
4.759520053863525,640.0
4.762563228607178,635.0
4.799520015716553,629.0
4.8541669845581055,624.0
4.857397079467773,617.0
4.860564947128296,614.0
4.864192008972168,611.0
4.867894172668457,608.0
4.913113117218018,607.0
4.916309118270874,606.0
4.919511079788208,606.0
4.922856092453003,607.0
4.926181077957153,608.0
4.930268287658691,608.0
4.9339919090271,609.0
4.937827110290527,609.0
4.97931694984436,611.0
4.982940196990967,612.0
4.990467071533203,612.0
4.997288942337036,611.0
5.000946998596191,611.0
5.00455117225647,611.0
5.008123159408569,611.0
5.011651039123535,611.0
5.015287160873413,611.0
5.018815994262695,611.0
5.022539138793945,614.0
5.026594161987305,620.0
5.0304529666900635,630.0
5.034832239151001,644.0
5.058551073074341,663.0
5.062274217605591,686.0
5.066035985946655,710.0
5.069788217544556,736.0
5.073103189468384,761.0
5.0765461921691895,784.0
5.0803611278533936,805.0
5.083932876586914,820.0
5.0876500606536865,828.0
5.091260194778442,829.0
5.0950751304626465,822.0
5.098669052124023,809.0
5.102199077606201,792.0
5.106534242630005,771.0
5.124804258346558,749.0
5.128494024276733,726.0
5.132926940917969,703.0
5.1573402881622314,682.0
5.160912275314331,665.0
5.165256977081299,649.0
5.189813137054443,637.0
5.1934850215911865,627.0
5.197861194610596,620.0
5.222249984741211,615.0
5.225959300994873,611.0
5.229571104049683,608.0
5.233902215957642,607.0
5.256010055541992,608.0
5.259690999984741,610.0
5.264043092727661,613.0
5.289008140563965,618.0
5.292659044265747,625.0
5.297863245010376,631.0
5.355122089385986,636.0
5.358684301376343,641.0
5.362354040145874,646.0
5.366037130355835,649.0
5.369571208953857,651.0
5.373120069503784,652.0
5.37827205657959,653.0
5.396028995513916,650.0
5.399734020233154,648.0
5.403330087661743,644.0
5.407717227935791,640.0
5.425987243652344,636.0
5.429548025131226,631.0
5.433928966522217,625.0
5.458524942398071,620.0
5.462398052215576,616.0
5.467272996902466,612.0
5.471857309341431,609.0
5.498642921447754,607.0
5.502273082733154,604.0
5.506603002548218,603.0
5.531074047088623,601.0
5.534719944000244,601.0
5.539086103439331,601.0
5.5634989738464355,602.0
5.567157983779907,604.0
5.570831060409546,605.0
5.575201988220215,607.0
5.5974719524383545,608.0
5.601038217544556,608.0
5.605457305908203,609.0
5.656382083892822,609.0
5.660851001739502,610.0
5.66541600227356,611.0
5.705022096633911,611.0
5.70519495010376,614.0
5.705359220504761,621.0
5.705527067184448,632.0
5.709358215332031,647.0
5.712892293930054,668.0
5.716486215591431,693.0
5.720895051956177,719.0
5.742289304733276,747.0
5.745942115783691,776.0
5.749580144882202,802.0
5.75396990776062,823.0
5.776045083999634,837.0
5.77965521812439,843.0
5.784053087234497,839.0
5.842924118041992,830.0
5.846336126327515,814.0
5.8497490882873535,793.0
5.8530800342559814,769.0
5.856403112411499,744.0
5.860289096832275,720.0
5.8640830516815186,697.0
5.867897033691406,676.0
5.903685092926025,660.0
5.907444000244141,646.0
5.911062002182007,635.0
5.914664030075073,627.0
5.9191670417785645,619.0
5.953742027282715,614.0
5.957434177398682,611.0
5.961066961288452,611.0
5.964637041091919,611.0
5.969088077545166,612.0
5.989886045455933,614.0
5.993473052978516,617.0
5.996753215789795,621.0
6.022309064865112,626.0
6.026296138763428,629.0
6.0313332080841064,633.0
6.064976215362549,637.0
6.068686246871948,640.0
6.07230806350708,642.0
6.075852155685425,644.0
6.080249071121216,646.0
6.100401163101196,646.0
6.1139421463012695,646.0
6.1172730922698975,643.0
6.120889186859131,638.0
6.125450134277344,633.0
6.130602121353149,628.0
6.158512115478516,623.0
6.1621739864349365,619.0
6.167322158813477,615.0
6.191012144088745,612.0
6.194585084915161,610.0
6.1996259689331055,608.0
6.253900051116943,606.0
6.257457971572876,604.0
6.261212110519409,604.0
6.265015125274658,603.0
6.268660068511963,602.0
6.272222995758057,603.0
6.277437925338745,601.0
6.294810056686401,600.0
6.298398971557617,601.0
6.302046060562134,601.0
6.305330038070679,600.0
6.328494071960449,601.0
6.332180976867676,602.0
6.336572885513306,603.0
6.361040115356445,602.0
6.364671945571899,603.0
6.36908221244812,607.0
6.3935322761535645,614.0
6.397578001022339,625.0
6.4014739990234375,641.0
6.405392169952393,662.0
6.431141138076782,688.0
6.434741973876953,715.0
6.4391090869903564,744.0
6.463633298873901,772.0
6.467242956161499,798.0
6.47161602973938,819.0
6.497066974639893,833.0
6.500457048416138,838.0
6.504094123840332,836.0
6.50738525390625,828.0
6.555009126663208,813.0
6.558696031570435,792.0
6.562483072280884,768.0
6.566184043884277,742.0
6.569746971130371,720.0
6.57509708404541,698.0
6.594757080078125,679.0
6.598460912704468,662.0
6.602067947387695,648.0
6.606420993804932,636.0
6.628641128540039,627.0
6.632245063781738,620.0
6.636649131774902,614.0
6.6611011028289795,610.0
6.664716005325317,608.0
6.669104099273682,608.0
6.704988956451416,610.0
6.708702087402344,612.0
6.712007999420166,615.0
6.71530818939209,621.0
6.718635082244873,625.0
6.759158134460449,630.0
6.762618064880371,636.0
6.766075134277344,641.0
6.76938009262085,645.0
6.772593975067139,648.0
6.775878190994263,649.0
6.816677093505859,649.0
6.820136070251465,649.0
6.824758052825928,647.0
6.828764200210571,643.0
6.833255290985107,640.0
6.8584980964660645,636.0
6.8621931076049805,631.0
6.865830183029175,627.0
6.870169162750244,622.0
6.89231014251709,618.0
6.895914077758789,615.0
6.90028715133667,612.0
6.9337122440338135,610.0
6.93744421005249,608.0
6.941044092178345,606.0
6.944603204727173,605.0
6.949002027511597,605.0
6.969834089279175,605.0
6.973577976226807,605.0
6.977967262268066,606.0
7.002454042434692,606.0
7.006043195724487,606.0
7.009613037109375,606.0
7.01396918296814,605.0
7.0352089405059814,604.0
7.038568019866943,605.0
7.041901111602783,608.0
7.068570137023926,614.0
7.072232007980347,624.0
7.076574087142944,639.0
7.1012279987335205,660.0
7.104809999465942,684.0
7.109151124954224,711.0
7.158719062805176,741.0
7.162305116653442,770.0
7.165903091430664,796.0
7.16971492767334,817.0
7.173335075378418,832.0
7.176872968673706,839.0
7.18126916885376,837.0
7.199784994125366,829.0
7.203392028808594,814.0
7.207762241363525,794.0
7.231637001037598,770.0
7.2354512214660645,745.0
7.239609241485596,722.0
7.24411416053772,698.0
7.271027088165283,676.0
7.274679183959961,658.0
7.279062032699585,642.0
7.303573131561279,629.0
7.3072240352630615,619.0
7.311575174331665,612.0
7.346193313598633,608.0
7.3499321937561035,604.0
7.353592157363892,604.0
7.3571882247924805,606.0
7.361597061157227,609.0
7.382278203964233,612.0
7.385919094085693,617.0
7.389610052108765,624.0
7.3939831256866455,630.0
7.416046142578125,636.0
7.420089244842529,643.0
7.424465179443359,647.0
7.454142093658447,650.0
7.458549976348877,652.0
7.4622721672058105,653.0
7.466702222824097,652.0
7.489925146102905,649.0
7.493532180786133,646.0
7.498687982559204,642.0
7.522279262542725,639.0
7.525778293609619,633.0
7.530703067779541,629.0
7.554768085479736,624.0
7.558426141738892,619.0
7.562082052230835,615.0
7.566476106643677,612.0
7.588515043258667,611.0
7.5922181606292725,611.0
7.596613168716431,609.0
7.621018171310425,608.0
7.624679327011108,607.0
7.628337144851685,607.0
7.631910085678101,606.0
7.653852939605713,607.0
7.657219171524048,607.0
7.6617591381073,608.0
7.687387228012085,608.0
7.690995931625366,608.0
7.695355176925659,608.0
7.71986722946167,611.0
7.723954916000366,617.0
7.728354215621948,627.0
7.758546352386475,643.0
7.762305021286011,664.0
7.76599907875061,689.0
7.770271062850952,718.0
7.7736241817474365,749.0
7.7777931690216064,778.0
7.830528974533081,804.0
7.833795070648193,827.0
7.837031126022339,840.0
7.840282201766968,845.0
7.843444108963013,841.0
7.8466880321502686,829.0
7.893134117126465,811.0
7.896321058273315,791.0
7.899569272994995,767.0
7.902834892272949,743.0
7.906618118286133,719.0
7.909884214401245,696.0
7.984450101852417,676.0
7.987612247467041,658.0
7.991002082824707,643.0
7.995211124420166,631.0
7.999056100845337,621.0
8.003530025482178,613.0
8.007951259613037,609.0
8.011591911315918,606.0
8.015128135681152,605.0
8.018675088882446,606.0
8.023072004318237,608.0
8.057569026947021,612.0
8.061248064041138,618.0
8.064873933792114,623.0
8.068419218063354,629.0
8.07358694076538,636.0
8.093948125839233,641.0
8.097308158874512,645.0
8.100605010986328,649.0
8.103879928588867,651.0
8.127839088439941,651.0
8.13128399848938,649.0
8.134665966033936,647.0
8.16015625,644.0
8.163776159286499,640.0
8.16844916343689,635.0
8.176896095275879,629.0
8.206048011779785,624.0
8.209664106369019,620.0
8.212876081466675,616.0
8.216086149215698,613.0
8.23895812034607,609.0
8.24221420288086,607.0
8.245575189590454,607.0
8.315699100494385,606.0
8.318870067596436,605.0
8.322304964065552,605.0
8.32620120048523,606.0
8.329468965530396,605.0
8.332977294921875,604.0
8.362550020217896,603.0
8.366055250167847,603.0
8.369811058044434,602.0
8.373609066009521,602.0
8.377316236495972,603.0
8.380820989608765,603.0
8.386097192764282,603.0
8.40512204170227,604.0
8.408749103546143,605.0
8.413116216659546,608.0
8.437310934066772,616.0
8.441344976425171,629.0
8.4449462890625,646.0
8.448460102081299,669.0
8.471099138259888,696.0
8.474756240844727,728.0
8.478347063064575,760.0
8.483634948730469,791.0
8.50490117073059,820.0
8.508515119552612,844.0
8.512916088104248,859.0
8.537328243255615,865.0
8.541025161743164,863.0
8.545396089553833,852.0
8.5728440284729,834.0
8.576362133026123,812.0
8.5796480178833,788.0
8.665109157562256,761.0
8.668741226196289,736.0
8.672593116760254,713.0
8.676223039627075,692.0
8.679800033569336,675.0
8.684580087661743,661.0
8.688261270523071,649.0
8.691806077957153,639.0
8.695402145385742,631.0
8.699059963226318,625.0
8.702620267868042,620.0
8.706162929534912,616.0
8.710560083389282,612.0
8.728606939315796,611.0
8.732187271118164,611.0
8.736524105072021,612.0
8.760225057601929,614.0
8.763700008392334,619.0
8.767234086990356,623.0
8.793735980987549,628.0
8.797255992889404,632.0
8.80164623260498,636.0
8.826122045516968,637.0
8.830104112625122,639.0
8.834119319915771,640.0
8.83850908279419,639.0
8.861592054367065,639.0
8.864914178848267,637.0
8.86832308769226,634.0
8.871675252914429,632.0
8.896054983139038,627.0
8.899688005447388,624.0
8.904113292694092,621.0
8.95571517944336,618.0
8.9581298828125,614.0
8.96169400215149,611.0
8.966494083404541,608.0
8.969709157943726,606.0
8.974619150161743,603.0
8.992393016815186,601.0
8.996041059494019,600.0
9.000400304794312,601.0
9.024949073791504,601.0
9.028655052185059,603.0
9.03294324874878,604.0
9.057444095611572,604.0
9.06113314628601,605.0
9.064951181411743,605.0
9.069010257720947,606.0
9.091079950332642,605.0
9.095026969909668,607.0
9.098806142807007,608.0
9.103214025497437,607.0
9.124835014343262,607.0
9.128572225570679,607.0
9.13375210762024,607.0
9.157477140426636,606.0
9.161338090896606,606.0
9.165590047836304,607.0
9.18982720375061,607.0
9.193522930145264,608.0
9.19790005683899,611.0
9.269375085830688,619.0
9.272934198379517,632.0
9.28229808807373,651.0
9.28608512878418,674.0
9.289813995361328,702.0
9.293574094772339,734.0
9.297116994857788,766.0
9.301543235778809,798.0
9.321084260940552,827.0
9.324819087982178,848.0
9.328554153442383,863.0
9.332288980484009,867.0
9.33585786819458,862.0
9.3402099609375,849.0
9.359854221343994,829.0
9.363456964492798,806.0
9.367971181869507,781.0
9.383576154708862,754.0
9.388125896453857,729.0
9.414835929870605,704.0
9.41845417022705,684.0
9.422093152999878,668.0
9.426490068435669,652.0
9.448519945144653,640.0
9.452036142349243,632.0
9.456423997879028,624.0
9.485567092895508,619.0
9.488768100738525,615.0
9.492053985595703,614.0
9.496642112731934,615.0
9.521103143692017,615.0
9.525053977966309,619.0
9.528603076934814,623.0
9.532995223999023,627.0
9.559818983078003,632.0
9.563507080078125,637.0
9.56788420677185,642.0
9.592305183410645,646.0
9.595947027206421,649.0
9.600338220596313,651.0
9.624855041503906,651.0
9.628430128097534,651.0
9.632097005844116,650.0
9.636466026306152,647.0
9.65888524055481,644.0
9.66247820854187,640.0
9.666823148727417,635.0
9.691033124923706,631.0
9.694748163223267,627.0
9.698439121246338,624.0
9.702822208404541,619.0
9.724881172180176,615.0
9.728522062301636,612.0
9.732871294021606,608.0
9.75731110572815,604.0
9.760934114456177,603.0
9.76530408859253,601.0
9.789072275161743,600.0
9.792573928833008,601.0
9.79702615737915,602.0
9.853742122650146,603.0
9.85730504989624,604.0
9.860956907272339,605.0
9.864741086959839,606.0
9.868348121643066,608.0
9.8718740940094,609.0
9.876243114471436,609.0
9.904764890670776,609.0
9.90836215019226,611.0
9.912055015563965,611.0
9.915678024291992,611.0
9.920859098434448,611.0
9.939806938171387,612.0
9.943449258804321,612.0
9.947078227996826,612.0
9.951463222503662,611.0
9.973579168319702,611.0
9.97726321220398,612.0
9.980838298797607,615.0
10.006273031234741,623.0
10.00980830192566,636.0
10.014127254486084,652.0
10.038639068603516,673.0
10.042258262634277,700.0
10.046616077423096,729.0
10.071094036102295,759.0
10.074820041656494,790.0
10.079209089279175,818.0
10.105385065078735,839.0
10.110351085662842,852.0
10.113624095916748,857.0
10.117023944854736,854.0
10.120661973953247,842.0
10.176893949508667,825.0
10.18016004562378,803.0
10.183561086654663,778.0
10.186872005462646,751.0
10.190128087997437,726.0
10.193455219268799,703.0
10.214819192886353,682.0
10.218483924865723,666.0
10.222109079360962,651.0
10.226453065872192,641.0
10.248545169830322,632.0
10.25226902961731,626.0
10.256606101989746,620.0
10.281068086624146,616.0
10.28472113609314,613.0
10.28909420967102,612.0
10.313528060913086,612.0
10.31719708442688,616.0
10.321609020233154,620.0
10.346073150634766,623.0
10.34968113899231,628.0
10.35338020324707,635.0
10.357723236083984,639.0
10.379804134368896,644.0
10.383413076400757,650.0
10.387847185134888,653.0
10.411540985107422,654.0
10.414834976196289,655.0
10.418530225753784,655.0
10.424100160598755,653.0
10.453760147094727,650.0
10.457365036010742,645.0
10.46100926399231,640.0
10.465380191802979,635.0
10.488700151443481,629.0
10.492262125015259,623.0
10.49739408493042,619.0
10.521480083465576,615.0
10.525871276855469,613.0
10.54748797416687,611.0
10.55109715461731,609.0
10.55483603477478,608.0
10.56000304222107,607.0
10.581098079681396,606.0
10.584694147109985,606.0
10.588337182998657,607.0
10.592689990997314,607.0
10.614773988723755,608.0
10.61844515800476,609.0
10.622888088226318,609.0
10.647256135940552,610.0
10.650784015655518,609.0
10.655129194259644,609.0
10.679857969284058,609.0
10.683616161346436,609.0
10.688258171081543,609.0
10.6961190700531,611.0
10.6997811794281,611.0
10.798171281814575,610.0
10.801360130310059,611.0
10.804859161376953,612.0
10.808141231536865,612.0
10.811384201049805,612.0
10.815308094024658,611.0
10.818884134292603,611.0
10.822567224502563,612.0
10.826303958892822,617.0
10.830082178115845,627.0
10.833682298660278,642.0
10.837252140045166,664.0
10.841617107391357,689.0
10.859848022460938,719.0
10.863463878631592,750.0
10.86788296699524,782.0
10.892320156097412,810.0
10.896217107772827,835.0
10.900864124298096,852.0
10.904396057128906,861.0
10.93265414237976,862.0
10.936264038085938,853.0
10.94060492515564,837.0
10.964787006378174,815.0
10.96849799156189,791.0
10.97291898727417,764.0
10.99752402305603,737.0
11.00119400024414,712.0
11.004786968231201,690.0
11.00846004486084,671.0
11.011770248413086,655.0
11.020210981369019,643.0
11.023810148239136,633.0
11.057488203048706,625.0
11.061233282089233,620.0
11.065797090530396,616.0
11.091021060943604,615.0
11.09473729133606,614.0
11.098809242248535,614.0
11.124788045883179,616.0
11.128455877304077,620.0
11.132076025009155,624.0
11.136423110961914,630.0
11.158493995666504,636.0
11.162108182907104,640.0
11.166508197784424,644.0
11.184798955917358,647.0
11.188488006591797,650.0
11.193710088729858,652.0
11.216567039489746,652.0
11.220051050186157,651.0
11.223392009735107,648.0
11.249814987182617,644.0
11.25345516204834,640.0
11.257841110229492,635.0
11.282271146774292,630.0
11.285991191864014,624.0
11.289597988128662,620.0
11.293927192687988,615.0
11.315253973007202,612.0
11.31862497329712,608.0
11.321985006332397,604.0
11.355002164840698,602.0
11.358602046966553,600.0
11.362282991409302,598.0
11.366676092147827,598.0
11.389804124832153,597.0
11.393463134765625,596.0
11.39711308479309,597.0
11.401535034179688,597.0
11.422770977020264,597.0
11.42625617980957,598.0
11.430411100387573,598.0
11.456013202667236,599.0
11.459588050842285,600.0
11.463940143585205,602.0
11.488770008087158,603.0
11.492280006408691,605.0
11.49662709236145,607.0
11.520379304885864,607.0
11.52416729927063,608.0
11.532823085784912,608.0
11.555448055267334,609.0
11.558565139770508,610.0
11.561645030975342,610.0
11.564851999282837,609.0
11.614309072494507,609.0
11.617619037628174,609.0
11.62080717086792,610.0
11.62434196472168,612.0
11.627525091171265,620.0
11.631296157836914,632.0
11.691946029663086,647.0
11.695111274719238,668.0
11.698344945907593,694.0
11.701696157455444,722.0
11.705039262771606,752.0
11.709053039550781,781.0
11.712802171707153,808.0
11.716535091400146,831.0
11.756811141967773,847.0
11.760057210922241,857.0
11.763273000717163,857.0
11.766566276550293,851.0
11.769737005233765,836.0
11.772902250289917,817.0
11.845664024353027,794.0
11.8492112159729,771.0
11.901965141296387,747.0
11.905107021331787,724.0
11.90831708908081,704.0
11.911609172821045,686.0
11.915055274963379,672.0
11.919236183166504,660.0
11.922768115997314,652.0
11.926009178161621,644.0
11.974212169647217,638.0
11.97529411315918,633.0
11.97853708267212,631.0
11.981778144836426,629.0
11.98500108718872,627.0
11.98830509185791,627.0
11.99178409576416,628.0
11.99537992477417,632.0
11.999065160751343,638.0
12.038034915924072,642.0
12.041316270828247,647.0
12.04455018043518,652.0
12.047897100448608,655.0
12.051376104354858,657.0
12.055314302444458,659.0
12.05909013748169,659.0
12.062855958938599,658.0
12.104466199874878,654.0
12.107593059539795,649.0
12.110795974731445,644.0
12.11412000656128,640.0
12.117586135864258,636.0
12.121549129486084,630.0
12.125311136245728,625.0
12.129142999649048,620.0
12.184292078018188,616.0
12.187632083892822,613.0
12.19080400466919,610.0
12.194172143936157,608.0
12.199109077453613,606.0
12.202775001525879,604.0
12.206592082977295,604.0
12.25557017326355,605.0
12.2588369846344,605.0
12.26211404800415,606.0
12.265368223190308,606.0
12.268726110458374,606.0
12.272071123123169,607.0
12.27549695968628,608.0
12.27914810180664,609.0
12.282854318618774,608.0
12.31799602508545,609.0
12.321254253387451,609.0
12.324851036071777,609.0
12.328588008880615,609.0
12.332121133804321,611.0
12.335695266723633,614.0
12.356069087982178,623.0
12.359715223312378,638.0
12.36408019065857,657.0
12.388581275939941,681.0
12.392247200012207,708.0
12.396603107452393,738.0
12.42107105255127,769.0
12.424727201461792,798.0
12.429162979125977,821.0
12.4651620388031,839.0
12.468963146209717,851.0
12.472383975982666,853.0
12.475961208343506,847.0
12.480433940887451,833.0
12.501191139221191,812.0
12.504857063293457,788.0
12.508923292160034,762.0
12.512369155883789,736.0
12.51774525642395,708.0
12.559332132339478,685.0
12.562654972076416,665.0
12.565991878509521,647.0
12.570032119750977,633.0
12.575269222259521,622.0
12.596138954162598,614.0
12.599756002426147,607.0
12.60411024093628,602.0
12.62858510017395,600.0
12.632291078567505,598.0
12.636770009994507,599.0
12.661083221435547,600.0
12.664801120758057,601.0
12.66926121711731,606.0
12.693591117858887,612.0
12.697273254394531,618.0
12.700868129730225,625.0
12.705255270004272,631.0
12.727406024932861,636.0
12.731035232543945,640.0
12.735480070114136,643.0
12.761082172393799,644.0
12.764976263046265,645.0
12.768656253814697,644.0
12.773945093154907,643.0
12.799883127212524,640.0
12.803486108779907,637.0
12.807892084121704,632.0
12.854332208633423,627.0
12.857686042785645,622.0
12.861085891723633,617.0
12.864518165588379,614.0
12.868090152740479,611.0
12.873306274414062,609.0
12.892318964004517,608.0
12.8960120677948,609.0
12.899636030197144,610.0
12.904051065444946,611.0
12.926094055175781,615.0
12.929693937301636,618.0
12.934036016464233,622.0
12.967478036880493,628.0
12.971088171005249,633.0
12.974821090698242,638.0
12.979204177856445,642.0
13.00252914428711,643.0
13.006047010421753,643.0
13.01120901107788,644.0
13.034868955612183,643.0
13.038499116897583,641.0
13.042120933532715,639.0
13.046468257904053,636.0
13.068603277206421,632.0
13.07234001159668,630.0
13.076711893081665,630.0
13.103911876678467,636.0
13.107294082641602,649.0
13.110759973526001,666.0
13.113991260528564,691.0
13.157569169998169,719.0
13.160834074020386,752.0
13.164252281188965,784.0
13.168015241622925,817.0
13.171734094619751,843.0
13.176482200622559,861.0
13.180355072021484,871.0
13.221729040145874,871.0
13.225322008132935,863.0
13.228046178817749,846.0
13.231460094451904,824.0
13.279885053634644,798.0
13.280071258544922,768.0
13.2833411693573,740.0
13.287069082260132,715.0
13.290600061416626,689.0
13.294954061508179,670.0
13.31483507156372,651.0
13.318478107452393,638.0
13.322132110595703,628.0
13.326421022415161,620.0
13.348549127578735,615.0
13.352231979370117,611.0
13.356619119644165,611.0
13.3804612159729,610.0
13.383824110031128,613.0
13.38828420639038,615.0
13.413628101348877,619.0
13.41724419593811,624.0
13.421211242675781,630.0
13.425581216812134,637.0
13.455495119094849,644.0
13.459049940109253,649.0
13.462645053863525,655.0
13.467787027359009,660.0
13.51307225227356,661.0
13.51628589630127,662.0
13.519610166549683,661.0
13.52361011505127,658.0
13.52730393409729,655.0
13.531729221343994,651.0
13.554857015609741,645.0
13.558482885360718,640.0
13.562136173248291,634.0
13.566485166549683,627.0
13.588587999343872,622.0
13.592282056808472,617.0
13.596604108810425,615.0
13.621071100234985,611.0
13.624788045883179,610.0
13.629955053329468,608.0
13.653552293777466,606.0
13.65724802017212,606.0
13.66087818145752,606.0
13.665338277816772,605.0
13.68730902671814,604.0
13.690845012664795,604.0
13.696027278900146,606.0
13.720221996307373,604.0
13.723788022994995,606.0
13.728153228759766,606.0
13.758332252502441,607.0
13.76259994506836,607.0
13.766546964645386,609.0
13.770494937896729,611.0
13.775005102157593,611.0
13.831714153289795,611.0
13.835185289382935,612.0
13.83859920501709,614.0
13.841997146606445,616.0
13.8454909324646,622.0
13.849111080169678,633.0
13.852858066558838,651.0
13.883937120437622,672.0
13.887510061264038,699.0
13.891132116317749,729.0
13.894653081893921,762.0
13.899115085601807,793.0
13.919855117797852,821.0
13.923543214797974,845.0
13.928734064102173,860.0
13.952340126037598,865.0
13.955976963043213,861.0
13.959642171859741,848.0
13.963989019393921,827.0
13.985563278198242,802.0
13.98927116394043,775.0
13.993902206420898,745.0
13.998385190963745,717.0
14.007807970046997,691.0
14.05505108833313,668.0
14.058718919754028,649.0
14.062421083450317,634.0
14.06600022315979,622.0
14.070344924926758,614.0
14.0990891456604,607.0
14.102359056472778,604.0
14.105648279190063,603.0
14.109188079833984,604.0
14.153226137161255,607.0
14.156446933746338,611.0
14.159740209579468,618.0
14.163080930709839,624.0
14.166499137878418,632.0
14.194875240325928,638.0
14.19860315322876,644.0
14.202343225479126,651.0
14.205926179885864,654.0
14.2102792263031,656.0
14.229820966720581,657.0
14.233464241027832,656.0
14.237873315811157,655.0
14.26237416267395,652.0
14.265969276428223,650.0
14.26972222328186,647.0
14.27408218383789,643.0
14.296040058135986,638.0
14.299760103225708,633.0
14.30417013168335,628.0
14.353837013244629,624.0
14.357506036758423,620.0
14.361407995223999,616.0
14.365008115768433,612.0
14.368559122085571,610.0
14.37293815612793,607.0
14.386030197143555,604.0
14.389281988143921,603.0
14.392677068710327,603.0
14.418666124343872,604.0
14.422290325164795,604.0
14.426655054092407,606.0
14.451878309249878,607.0
14.45548415184021,608.0
14.45904016494751,609.0
14.463387250900269,610.0
14.48495626449585,609.0
14.488123178482056,610.0
14.49197793006897,610.0
14.49944806098938,610.0
14.528582096099854,611.0
14.53221607208252,613.0
14.53656816482544,618.0
14.561079025268555,627.0
14.564697265625,640.0
14.569051265716553,659.0
14.592864990234375,683.0
14.603547096252441,712.0
14.607264041900635,743.0
14.610867977142334,773.0
14.616064071655273,801.0
14.656255006790161,827.0
14.659987926483154,845.0
14.663684129714966,856.0
14.667230129241943,857.0
14.671621084213257,848.0
14.691495180130005,831.0
14.694845914840698,807.0
14.698101043701172,781.0
14.701426029205322,751.0
14.74577522277832,722.0
14.749121189117432,694.0
14.752662181854248,671.0
14.755896091461182,650.0
14.759181022644043,633.0
14.805068016052246,619.0
14.808757066726685,608.0
14.812632083892822,600.0
14.816134214401245,595.0
14.819713115692139,592.0
14.824099063873291,592.0
14.842331171035767,595.0
14.845975160598755,600.0
14.849691152572632,606.0
14.854023933410645,613.0
14.876110076904297,620.0
14.879734992980957,626.0
14.884103298187256,632.0
14.907863140106201,638.0
14.911590099334717,643.0
14.916286945343018,648.0
14.920934200286865,651.0
14.955045223236084,652.0
14.958639144897461,652.0
14.962329149246216,652.0
14.966727256774902,649.0
14.989886045455933,647.0
14.99357008934021,642.0
14.997961044311523,639.0
15.026899099349976,633.0
15.040168046951294,630.0
15.043557167053223,626.0
15.046813011169434,622.0
15.050218105316162,618.0
15.054587125778198,615.0
15.076124906539917,611.0
15.079779148101807,608.0
15.08411693572998,605.0
15.113919973373413,604.0
15.117420196533203,604.0
15.12108325958252,603.0
15.125495195388794,601.0
15.148781061172485,601.0
15.152352094650269,602.0
15.156718254089355,603.0
15.181097030639648,603.0
15.18476915359497,605.0
15.189138889312744,605.0
15.215332269668579,605.0
15.218646049499512,606.0
15.222290277481079,606.0
15.226748943328857,609.0
15.25485897064209,614.0
15.258503198623657,623.0
15.262164115905762,637.0
15.266561031341553,656.0
15.288581132888794,679.0
15.292229175567627,708.0
15.296630144119263,739.0
15.320155143737793,771.0
15.323435068130493,801.0
15.326711177825928,828.0
15.353618144989014,846.0
15.35726809501648,858.0
15.360873937606812,860.0
15.365323066711426,853.0
15.37998628616333,836.0
15.384400129318237,815.0
15.41026520729065,787.0
15.413732051849365,758.0
15.417175054550171,728.0
15.443673133850098,698.0
15.447221040725708,672.0
15.451597213745117,650.0
15.476114988327026,631.0
15.476303100585938,615.0
15.479764938354492,603.0
15.484235048294067,595.0
15.508632183074951,590.0
15.511791229248047,588.0
15.515510082244873,588.0
15.55510926246643,591.0
15.558717966079712,595.0
15.562386989593506,601.0
15.565907955169678,608.0
15.570318222045898,616.0
15.594812154769897,624.0
15.59850811958313,632.0
15.60213828086853,639.0
15.606489181518555,645.0
15.627730131149292,649.0
15.631157159805298,652.0
15.6353919506073,654.0
15.678117275238037,654.0
15.681372880935669,653.0
15.684843063354492,651.0
15.688148021697998,647.0
15.69136905670166,643.0
15.694648027420044,639.0
15.727524042129517,635.0
15.731120109558105,630.0
15.73479700088501,625.0
15.739172220230103,622.0
15.762531042098999,616.0
15.766705989837646,613.0
15.771992206573486,610.0
15.796096086502075,608.0
15.799752950668335,604.0
15.803359985351562,603.0
15.807775020599365,603.0
15.855118036270142,602.0
15.858724117279053,603.0
15.862496137619019,604.0
15.86622428894043,606.0
15.86972713470459,607.0
15.874137163162231,608.0
15.892307043075562,609.0
15.89599895477295,611.0
15.899609088897705,611.0
15.903938055038452,612.0
15.935187101364136,611.0
15.938591957092285,610.0
15.942342281341553,611.0
15.946700096130371,613.0
15.969855070114136,620.0
15.973514080047607,631.0
15.9779691696167,648.0
16.002798080444336,668.0
16.006407976150513,694.0
16.010716199874878,723.0
16.036144256591797,755.0
16.039761304855347,787.0
16.04343605041504,816.0
16.0478572845459,839.0
16.069786071777344,854.0
16.07336401939392,860.0
16.077755212783813,857.0
16.101437091827393,844.0
16.10482096672058,824.0
16.108562231063843,799.0
16.112956285476685,769.0
16.15756320953369,739.0
16.161240100860596,708.0
16.16486096382141,680.0
16.168443202972412,655.0
16.172799110412598,633.0
16.193588972091675,616.0
16.197249174118042,601.0
16.200917959213257,592.0
16.20535707473755,588.0
16.227445125579834,585.0
16.23064613342285,587.0
16.234452962875366,591.0
16.24270009994507,597.0
16.30450415611267,607.0
16.355568170547485,617.0
16.35891604423523,627.0
16.362107276916504,638.0
16.36545205116272,648.0
16.369121074676514,657.0
16.372814178466797,664.0
16.3765549659729,669.0
16.380292177200317,671.0
16.421833038330078,672.0
16.42511796951294,670.0
16.42835831642151,667.0
16.43169116973877,660.0
16.43492603302002,654.0
16.438106060028076,648.0
16.44129514694214,642.0
16.500648021697998,635.0
16.503926992416382,630.0
16.507331132888794,624.0
16.511528968811035,620.0
16.515165090560913,617.0
16.519095182418823,615.0
16.5228910446167,614.0
16.52653217315674,613.0
16.5718731880188,612.0
16.57512903213501,614.0
16.578318119049072,614.0
16.581667184829712,614.0
16.58507013320923,615.0
16.589060068130493,617.0
16.592846155166626,617.0
16.596599102020264,619.0
16.63813304901123,617.0
16.641367197036743,617.0
16.644642114639282,620.0
16.647951126098633,628.0
16.6512610912323,640.0
16.655309200286865,658.0
16.659054040908813,680.0
16.66282820701599,707.0
16.698094129562378,739.0
16.70138716697693,771.0
16.70459222793579,802.0
16.70783305168152,829.0
16.71102523803711,847.0
16.714303970336914,858.0
16.755062103271484,859.0
16.7587251663208,851.0
16.76250410079956,837.0
16.766059160232544,815.0
16.77001404762268,788.0
16.773781061172485,759.0
16.777494192123413,731.0
16.781934022903442,704.0
16.803632259368896,680.0
16.807308197021484,659.0
16.81168222427368,639.0
16.836068153381348,625.0
16.839783906936646,612.0
16.843038082122803,603.0
16.8686740398407,598.0
16.87230110168457,595.0
16.87670612335205,594.0
16.90111517906189,596.0
16.904771089553833,600.0
16.90993309020996,606.0
16.99703812599182,612.0
17.000147104263306,620.0
17.003339052200317,627.0
17.006667137145996,635.0
17.010076999664307,641.0
17.0140700340271,647.0
17.017828226089478,652.0
17.021140098571777,655.0
17.061936140060425,657.0
17.06518816947937,656.0
17.06866717338562,654.0
17.07185411453247,651.0
17.07532811164856,647.0
17.079100131988525,643.0
17.08283495903015,638.0
17.086636066436768,633.0
17.12556219100952,628.0
17.128902196884155,624.0
17.132117986679077,621.0
17.13565707206726,618.0
17.139278173446655,616.0
17.14297604560852,614.0
17.14667010307312,612.0
17.184484243392944,610.0
17.188045024871826,608.0
17.25182008743286,607.0
17.255099296569824,605.0
17.25836205482483,604.0
17.261755228042603,603.0
17.265396118164062,602.0
17.268704175949097,602.0
17.272799968719482,603.0
17.276557207107544,604.0
17.280333042144775,609.0
17.326837062835693,619.0
17.330212116241455,633.0
17.333595275878906,654.0
17.33691716194153,681.0
17.340106964111328,713.0
17.343327045440674,750.0
17.391370058059692,787.0
17.395008087158203,823.0
17.398786067962646,853.0
17.402648210525513,875.0
17.406350135803223,887.0
17.410112142562866,887.0
17.41386318206787,878.0
17.41758704185486,862.0
17.421388149261475,838.0
17.424991130828857,810.0
17.42853808403015,780.0
17.432929039001465,749.0
17.45111608505249,721.0
17.45491313934326,697.0
17.45819902420044,675.0
17.48367214202881,656.0
17.48712706565857,640.0
17.49077606201172,627.0
17.495256185531616,616.0
17.517333984375,608.0
17.520888090133667,604.0
17.525240182876587,601.0
17.54988121986389,600.0
17.55350089073181,601.0
17.556843996047974,606.0
17.58510708808899,611.0
17.58854031562805,617.0
17.592182159423828,625.0
17.59656596183777,631.0
17.618644952774048,639.0
17.62281107902527,644.0
17.627393007278442,649.0
17.660709142684937,652.0
17.674849033355713,655.0
17.678656101226807,655.0
17.682329177856445,655.0
17.686044931411743,655.0
17.690268993377686,653.0
17.709875106811523,650.0
17.713542222976685,646.0
17.71788215637207,642.0
17.742383241653442,638.0
17.746020078659058,635.0
17.750373125076294,632.0
17.775350093841553,628.0
17.778589010238647,624.0
17.781902074813843,621.0
17.785186052322388,617.0
17.828028202056885,614.0
17.8314151763916,612.0
17.834887266159058,610.0
17.83819603919983,609.0
17.841411113739014,608.0
17.84469723701477,608.0
17.875015258789062,608.0
17.878599166870117,612.0
17.882352113723755,618.0
17.886781930923462,630.0
17.90982413291931,647.0
17.9134681224823,672.0
17.917914152145386,701.0
17.955361127853394,734.0
17.958755016326904,768.0
17.96241307258606,803.0
17.96596622467041,834.0
17.969272136688232,857.0
17.991281986236572,871.0
17.995142221450806,873.0
18.000137090682983,867.0
18.02615714073181,851.0
18.0297532081604,830.0
18.033367156982422,803.0
18.037720203399658,774.0
18.059967041015625,743.0
18.06353211402893,716.0
18.06853199005127,691.0
18.092507123947144,670.0
18.0960111618042,652.0
18.099844217300415,636.0
18.102931022644043,624.0
18.125209093093872,616.0
18.12862801551819,609.0
18.13277530670166,604.0
18.137684106826782,600.0
18.166887283325195,600.0
18.171448230743408,600.0
18.174941062927246,604.0
18.201904296875,608.0
18.205979108810425,614.0
18.23900318145752,620.0
18.242548942565918,627.0
18.246363162994385,633.0
18.249674081802368,639.0
18.252867221832275,643.0
18.256638050079346,647.0
18.265398025512695,651.0
18.268073081970215,651.0
18.28756308555603,651.0
18.29204297065735,649.0
18.318960189819336,647.0
18.322511196136475,643.0
18.3268039226532,640.0
18.351312160491943,636.0
18.354759216308594,631.0
18.35911202430725,628.0
18.383056163787842,626.0
18.386340141296387,622.0
18.390371084213257,620.0
18.434216022491455,617.0
18.43751811981201,615.0
18.44104027748108,614.0
18.444348335266113,612.0
18.44756817817688,611.0
18.45084500312805,609.0
18.48807406425476,606.0
18.49127721786499,604.0
18.494598150253296,603.0
18.498221158981323,602.0
18.50179100036621,603.0
18.506200075149536,607.0
18.55528211593628,615.0
18.558599948883057,631.0
18.56266212463379,653.0
18.566274166107178,680.0
18.57004427909851,713.0
18.573755264282227,750.0
18.57811713218689,787.0
18.599109172821045,823.0
18.602602005004883,851.0
18.606746196746826,872.0
18.632349967956543,881.0
18.636029958724976,880.0
18.64045524597168,868.0
18.664873123168945,849.0
18.668517112731934,825.0
18.672061920166016,797.0
18.676435947418213,768.0
18.698660135269165,739.0
18.70230507850647,715.0
18.70754313468933,693.0
18.731139183044434,674.0
18.734807014465332,657.0
18.739193201065063,644.0
18.76358723640442,633.0
18.767250299453735,624.0
18.770941019058228,617.0
18.776087045669556,614.0
18.842372179031372,612.0
18.900081157684326,612.0
18.90381121635437,614.0
18.907679080963135,618.0
18.911751985549927,623.0
18.91544818878174,627.0
18.91915798187256,633.0
18.922791957855225,639.0
18.926392078399658,645.0
18.930068969726562,650.0
18.93388605117798,655.0
18.93772315979004,657.0
18.941489934921265,659.0
18.945163011550903,657.0
18.948822021484375,656.0
18.952522039413452,654.0
18.95601725578308,651.0
18.96123695373535,647.0
18.97988724708557,644.0
18.98358416557312,641.0
18.98793911933899,637.0
19.01237416267395,635.0
19.01603412628174,632.0
19.020373106002808,630.0
19.045185089111328,627.0
19.048771142959595,624.0
19.053182125091553,621.0
19.077455043792725,620.0
19.077649116516113,619.0
19.08103609085083,618.0
19.085357189178467,615.0
19.15550422668457,614.0
19.159285068511963,615.0
19.203510999679565,615.0
19.206521034240723,614.0
19.209890127182007,616.0
19.213698148727417,622.0
19.217395067214966,633.0
19.221153020858765,649.0
19.22489595413208,672.0
19.228599071502686,703.0
19.232372999191284,739.0
19.235916137695312,778.0
19.239647150039673,817.0
19.243170022964478,850.0
19.24670910835266,876.0
19.251118183135986,893.0
19.26861596107483,898.0
19.272264003753662,894.0
19.276665210723877,882.0
19.300405979156494,860.0
19.31619930267334,833.0
19.319756031036377,806.0
19.323426008224487,776.0
19.327850103378296,748.0
19.34988498687744,722.0
19.353613138198853,700.0
19.357943058013916,680.0
19.382391214370728,664.0
19.38605523109436,648.0
19.38969111442566,636.0
19.394012928009033,626.0
19.416982173919678,618.0
19.420521020889282,613.0
19.424962043762207,611.0
19.454477071762085,608.0
19.458970069885254,609.0
19.4625301361084,611.0
19.467074155807495,615.0
19.505823135375977,620.0
19.516135931015015,627.0
19.519960165023804,635.0
19.523518085479736,641.0
19.52705407142639,647.0
19.530627012252808,652.0
19.53426504135132,655.0
19.53865122795105,657.0
19.563639163970947,659.0
19.567306995391846,660.0
19.57162594795227,657.0
19.596096992492676,655.0
19.59974193572998,651.0
19.603352069854736,646.0
19.62887716293335,640.0
19.632615327835083,635.0
19.637104272842407,628.0
19.66165018081665,622.0
19.664924144744873,617.0
19.6700541973114,615.0
19.69384217262268,612.0
19.697315216064453,610.0
19.701660871505737,609.0
19.75518012046814,609.0
19.758805990219116,608.0
19.7625470161438,607.0
19.766247987747192,606.0
19.76998209953308,606.0
19.773673057556152,606.0
19.777235984802246,607.0
19.78160309791565,608.0
19.799870014190674,610.0
19.803505182266235,615.0
19.807049036026,621.0
19.832646131515503,633.0
19.83640718460083,652.0
19.840018272399902,678.0
19.84435510635376,712.0
19.86608910560608,752.0
19.869807243347168,797.0
19.87419104576111,841.0
19.898649215698242,879.0
19.902316093444824,908.0
19.906684160232544,926.0
19.93111515045166,932.0
19.93475103378296,927.0
19.93843913078308,912.0
19.942851066589355,888.0
19.964866161346436,858.0
19.968552112579346,825.0
19.97291111946106,792.0
19.997522115707397,760.0
20.001090049743652,730.0
20.00543522834778,704.0
20.05514121055603,680.0
20.058748245239258,660.0
20.062644004821777,641.0
20.066538095474243,626.0
20.070186138153076,613.0
20.07379913330078,602.0
20.078168153762817,594.0
20.101115226745605,587.0
20.104534149169922,583.0
20.108877182006836,581.0
20.145063877105713,580.0
20.148956298828125,583.0
20.152453184127808,589.0
20.156040906906128,595.0
20.159589290618896,603.0
20.238137245178223,611.0
20.241398096084595,619.0
20.244606018066406,626.0
20.247981071472168,633.0
20.251346349716187,637.0
20.254503965377808,640.0
20.258111000061035,642.0
20.261805057525635,640.0
20.303251028060913,639.0
20.306448221206665,637.0
20.309677124023438,632.0
20.31298303604126,629.0
20.316341161727905,624.0
20.319664239883423,620.0
20.3228542804718,617.0
20.326066970825195,614.0
20.370545864105225,610.0
20.373867988586426,608.0
20.377119064331055,606.0
20.380424976348877,605.0
20.384132146835327,604.0
20.38782525062561,604.0
20.39165711402893,603.0
20.440585136413574,601.0
20.443897247314453,601.0
20.44713807106018,600.0
20.45043706893921,600.0
20.45419716835022,600.0
20.457893133163452,601.0
20.461672067642212,601.0
20.50580406188965,601.0
20.50892210006714,601.0
20.512184143066406,602.0
20.51546597480774,604.0
20.518607139587402,605.0
20.521815061569214,608.0
20.569475173950195,611.0
20.57266616821289,619.0
20.575876235961914,631.0
20.579209089279175,648.0
20.58255410194397,673.0
20.58573007583618,705.0
20.588892936706543,743.0
20.640494108200073,784.0
20.643747091293335,825.0
20.646985054016113,861.0
20.650140285491943,888.0
20.65335202217102,903.0
20.656493186950684,906.0
20.66017723083496,899.0
20.694287061691284,881.0
20.69771409034729,856.0
20.701059103012085,826.0
20.704363107681274,793.0
20.707648992538452,760.0
20.742512226104736,728.0
20.74613928794861,700.0
20.749873161315918,676.0
20.753477096557617,655.0
20.757878065109253,637.0
20.78485417366028,622.0
20.788487195968628,611.0
20.792181968688965,603.0
20.796706199645996,596.0
20.803629159927368,591.0
20.8089599609375,590.0
20.83409094810486,590.0
20.837852239608765,592.0
20.841670274734497,595.0
20.85159206390381,601.0
20.879882097244263,609.0
20.883435010910034,616.0
20.887367963790894,624.0
20.891210079193115,631.0
20.919949054718018,638.0
20.92407202720642,643.0
20.928482055664062,648.0
20.99820327758789,650.0
21.00143527984619,652.0
21.004889249801636,651.0
21.00829529762268,649.0
21.011922121047974,645.0
21.015635013580322,640.0
21.047751903533936,635.0
21.051253080368042,629.0
21.054936170578003,623.0
21.05870509147644,618.0
21.062588214874268,613.0
21.066899061203003,608.0
21.07091999053955,606.0
21.075923919677734,603.0
21.092266082763672,602.0
21.096402168273926,600.0
21.1013503074646,600.0
21.12441921234131,600.0
21.129374027252197,601.0
21.13357710838318,601.0
21.137782096862793,603.0
21.15986728668213,605.0
21.163490056991577,606.0
21.16697406768799,606.0
21.192503213882446,607.0
21.19610595703125,609.0
21.20051097869873,610.0
21.290729999542236,609.0
21.293986082077026,610.0
21.29416823387146,609.0
21.29739212989807,612.0
21.300708055496216,617.0
21.30427312850952,626.0
21.307995080947876,642.0
21.311750173568726,665.0
21.315503120422363,695.0
21.31933903694153,732.0
21.351745128631592,769.0
21.355525255203247,808.0
21.36360812187195,842.0
21.367276191711426,868.0
21.37089729309082,884.0
21.374470233917236,888.0
21.37810206413269,881.0
21.382448196411133,865.0
21.40022611618042,840.0
21.403812170028687,812.0
21.408220291137695,782.0
21.42482900619507,748.0
21.42838406562805,718.0
21.432775259017944,690.0
21.45990014076233,665.0
21.463502168655396,644.0
21.467161178588867,628.0
21.472379207611084,614.0
21.493810892105103,604.0
21.49739122390747,599.0
21.502556324005127,594.0
21.5606689453125,591.0
21.563942193984985,592.0
21.5673930644989,593.0
21.570717096328735,597.0
21.574178218841553,601.0
21.577943086624146,607.0
21.58174705505371,614.0
21.620471000671387,621.0
21.623839139938354,629.0
21.627166032791138,636.0
21.630449295043945,642.0
21.6337411403656,647.0
21.662423133850098,649.0
21.66676616668701,650.0
21.67046809196472,648.0
21.674033880233765,646.0
21.67841410636902,643.0
21.698813915252686,638.0
21.70236325263977,632.0
21.706759929656982,628.0
21.733760118484497,624.0
21.737399101257324,619.0
21.741213083267212,614.0
21.745567083358765,610.0
21.766693115234375,608.0
21.77024507522583,606.0
21.77466917037964,604.0
21.799938201904297,603.0
21.803553104400635,601.0
21.807883977890015,602.0
21.854185104370117,601.0
21.857505083084106,602.0
21.861621141433716,604.0
21.865384101867676,604.0
21.88292098045349,604.0
21.886266231536865,604.0
21.89040517807007,604.0
21.894200086593628,605.0
21.898017168045044,604.0
21.934246301651,605.0
21.937695026397705,606.0
21.941031217575073,608.0
21.944329023361206,608.0
21.947636127471924,611.0
21.971128225326538,615.0
21.974822282791138,625.0
21.979218244552612,639.0
22.003804922103882,661.0
22.007444143295288,690.0
22.011122941970825,725.0
22.015488147735596,763.0
22.037368059158325,802.0
22.041325092315674,839.0
22.0456759929657,868.0
22.07382106781006,888.0
22.077458143234253,896.0
22.081231117248535,892.0
22.085644006729126,877.0
22.106441974639893,855.0
22.109796047210693,828.0
22.114659070968628,796.0
22.15503692626953,764.0
22.15877413749695,732.0
22.163716077804565,703.0
22.16692614555359,677.0
22.17023515701294,654.0
22.19115710258484,635.0
22.194801092147827,621.0
22.19916796684265,609.0
22.223673105239868,600.0
22.227338075637817,594.0
22.231719970703125,591.0
22.256152153015137,589.0
22.259838104248047,589.0
22.263381004333496,592.0
22.266722202301025,597.0
22.292418003082275,602.0
22.29603099822998,611.0
22.29967999458313,620.0
22.304845094680786,627.0
22.32613706588745,635.0
22.329774141311646,642.0
22.33414912223816,649.0
22.35861611366272,653.0
22.362284183502197,655.0
22.36586904525757,654.0
22.391131162643433,651.0
22.39479923248291,647.0
22.3991801738739,643.0
22.414910078048706,637.0
22.420239210128784,632.0
22.453872203826904,627.0
22.457553148269653,623.0
22.461175203323364,619.0
22.46476912498474,614.0
22.468608140945435,610.0
22.53322124481201,607.0
22.536450147628784,605.0
22.539936065673828,603.0
22.54325819015503,601.0
22.546441078186035,601.0
22.550379991531372,602.0
22.5541570186615,602.0
22.55801010131836,601.0
22.585050106048584,600.0
22.588672161102295,601.0
22.59234619140625,601.0
22.595876216888428,600.0
22.60027503967285,600.0
22.619845151901245,600.0
22.62339210510254,602.0
22.628583908081055,603.0
22.65241503715515,605.0
22.65647315979004,606.0
22.66017198562622,609.0
22.664520025253296,610.0
22.705130100250244,611.0
22.708805084228516,613.0
22.712462186813354,614.0
22.715981006622314,614.0
22.720433950424194,614.0
22.755052089691162,613.0
22.75882911682129,613.0
22.762460947036743,613.0
22.766000270843506,614.0
22.770400047302246,617.0
22.790417194366455,624.0
22.793707132339478,639.0
22.79693913459778,660.0
22.800199270248413,689.0
22.845713138580322,723.0
22.84895610809326,763.0
22.852274894714355,806.0
22.855631113052368,846.0
22.85896611213684,880.0
22.896363973617554,903.0
22.90004301071167,915.0
22.903669118881226,916.0
22.907232999801636,904.0
22.91163420677185,882.0
22.9323992729187,854.0
22.936073064804077,821.0
22.93970513343811,786.0
22.94401717185974,751.0
22.96614098548889,718.0
22.96979808807373,689.0
22.974167108535767,666.0
22.998784065246582,646.0
23.002363204956055,632.0
23.006696939468384,621.0
23.05765724182129,613.0
23.061318159103394,608.0
23.06508708000183,605.0
23.068785190582275,602.0
23.07231616973877,602.0
23.07668924331665,604.0
23.094149112701416,605.0
23.097629070281982,609.0
23.100954055786133,614.0
23.146936178207397,620.0
23.150233030319214,626.0
23.153658151626587,633.0
23.156989097595215,639.0
23.160449028015137,645.0
23.164184093475342,649.0
23.167975902557373,652.0
23.20510220527649,654.0
23.20878791809082,654.0
23.212855100631714,652.0
23.21646523475647,649.0
23.22013020515442,645.0
23.225343942642212,640.0
23.24863624572754,636.0
23.252279043197632,632.0
23.25665307044983,627.0
23.280203104019165,624.0
23.283561944961548,620.0
23.286855220794678,615.0
23.31370496749878,611.0
23.317355155944824,608.0
23.3226261138916,604.0
23.37529706954956,603.0
23.379655122756958,601.0
23.38420820236206,600.0
23.409224033355713,599.0
23.40940022468567,599.0
23.409565925598145,599.0
23.409724950790405,600.0
23.409886121749878,600.0
23.41267418861389,600.0
23.416234016418457,602.0
23.422028064727783,603.0
23.445046186447144,605.0
23.44853925704956,606.0
23.452946186065674,606.0
23.477365016937256,606.0
23.481144189834595,607.0
23.486221075057983,608.0
23.509014129638672,609.0
23.51261591911316,609.0
23.51731514930725,610.0
23.54248023033142,609.0
23.545998096466064,610.0
23.55120301246643,610.0
23.575154066085815,609.0
23.578740119934082,608.0
23.58282208442688,609.0
23.58720302581787,613.0
23.60871911048889,620.0
23.61235523223877,634.0
23.616697072982788,653.0
23.653889179229736,679.0
23.65757703781128,711.0
23.661394119262695,749.0
23.665037155151367,787.0
23.668652057647705,825.0
23.673201322555542,858.0
23.69943618774414,882.0
23.70327615737915,896.0
23.712762117385864,899.0
23.716069221496582,892.0
23.74493908882141,875.0
23.748605966567993,850.0
23.753042221069336,820.0
23.77738904953003,787.0
23.781105995178223,754.0
23.784715175628662,723.0
23.78907012939453,694.0
23.810489177703857,667.0
23.815216302871704,646.0
23.819842100143433,628.0
23.824285984039307,615.0
23.849924087524414,606.0
23.853536128997803,600.0
23.857933044433594,595.0
23.882379055023193,594.0
23.88607406616211,595.0
23.889713287353516,598.0
23.894887924194336,601.0
23.916155099868774,607.0
23.920194149017334,614.0
23.9256911277771,621.0
23.95613121986389,628.0
23.960222959518433,635.0
23.96413516998291,641.0
23.968407154083252,647.0
23.988757133483887,651.0
23.992576122283936,653.0
23.996140003204346,654.0
24.000465154647827,653.0
24.060688257217407,650.0
24.063980102539062,647.0
24.067333221435547,643.0
24.071537971496582,637.0
24.075393199920654,632.0
24.07925295829773,626.0
24.113088130950928,620.0
24.11650013923645,616.0
24.119924068450928,612.0
24.123687982559204,609.0
24.12728500366211,606.0
24.132456064224243,602.0
24.15388321876526,600.0
24.15745997428894,597.0
24.161851167678833,596.0
24.18618607521057,595.0
24.189778327941895,595.0
24.19346833229065,595.0
24.197813987731934,596.0
24.21917700767517,596.0
24.222435235977173,597.0
24.22600817680359,598.0
24.23097515106201,598.0
24.25991201400757,599.0
24.263626098632812,600.0
24.26804518699646,600.0
24.292476892471313,600.0
24.29608392715454,600.0
24.299756050109863,602.0
24.304121255874634,603.0
24.33302617073059,603.0
24.336026191711426,604.0
24.339324235916138,603.0
24.34462809562683,603.0
24.36987590789795,603.0
24.37353801727295,603.0
24.37789225578308,603.0
24.402497053146362,604.0
24.40613603591919,608.0
24.41045308113098,616.0
24.43479299545288,630.0
24.438066959381104,649.0
24.441676139831543,675.0
24.44537615776062,705.0
24.485719203948975,739.0
24.488903999328613,775.0
24.49230408668518,811.0
24.495480060577393,841.0
24.498924016952515,864.0
24.553255319595337,876.0
24.55681014060974,878.0
24.621251106262207,871.0
24.684377193450928,854.0
24.688074111938477,830.0
24.739397287368774,800.0
24.742874145507812,768.0
24.746188163757324,735.0
24.74943995475769,704.0
24.75272512435913,676.0
24.75667929649353,652.0
24.760475158691406,631.0
24.764228105545044,612.0
24.76805806159973,598.0
24.779972076416016,589.0
24.78368616104126,583.0
24.787410259246826,582.0
24.791161060333252,581.0
24.794915199279785,583.0
24.798992156982422,588.0
24.802601099014282,594.0
24.806413173675537,602.0
24.810201168060303,610.0
24.810370206832886,619.0
24.810556888580322,627.0
24.810731172561646,636.0
24.813911199569702,642.0
24.81768298149109,649.0
24.821425914764404,653.0
24.82633399963379,655.0
24.829594135284424,657.0
24.833312034606934,656.0
24.857372283935547,654.0
24.861129999160767,649.0
24.86490511894226,645.0
24.86847424507141,640.0
24.872802019119263,634.0
24.89236092567444,628.0
24.89604616165161,622.0
24.899641036987305,616.0
24.904096126556396,613.0
24.92610812187195,609.0
24.92933201789856,606.0
24.932690143585205,605.0
24.958702087402344,604.0
24.962388038635254,602.0
24.966843128204346,602.0
24.991281270980835,601.0
24.994847059249878,604.0
24.99924397468567,605.0
25.023669958114624,606.0
25.028663158416748,607.0
25.03199791908264,609.0
25.056267023086548,608.0
25.05979323387146,610.0
25.06345224380493,611.0
25.067853212356567,613.0
25.08991312980652,614.0
25.093895196914673,618.0
25.098006010055542,624.0
25.102371215820312,634.0
25.15493607521057,649.0
25.15845513343811,671.0
25.16218328475952,698.0
25.16576910018921,729.0
25.16929817199707,761.0
25.173684120178223,793.0
25.191245079040527,822.0
25.19482398033142,844.0
25.199218034744263,858.0
25.223663091659546,860.0
25.227309226989746,855.0
25.232449054718018,840.0
25.26513409614563,818.0
25.26880717277527,792.0
25.272472143173218,763.0
25.276056051254272,732.0
25.280474185943604,702.0
25.301148891448975,675.0
25.304828882217407,652.0
25.308462142944336,632.0
25.312815189361572,613.0
25.334887981414795,601.0
25.338216066360474,591.0
25.34201717376709,586.0
25.354888916015625,583.0
25.35948419570923,583.0
25.38614821434021,585.0
25.38980007171631,590.0
25.394237995147705,596.0
25.41860604286194,604.0
25.423014163970947,612.0
25.42789912223816,621.0
25.46007013320923,629.0
25.46369218826294,638.0
25.46778106689453,645.0
25.47217106819153,650.0
25.497543334960938,653.0
25.501079082489014,655.0
25.504709243774414,655.0
25.509063243865967,655.0
25.531171083450317,651.0
25.534797191619873,647.0
25.540069103240967,643.0
25.54338812828064,636.0
25.564407110214233,632.0
25.56803607940674,625.0
25.571843147277832,621.0
25.593984127044678,615.0
25.5972580909729,611.0
25.600584030151367,608.0
25.627389907836914,604.0
25.63091516494751,603.0
25.635335206985474,601.0
25.6636061668396,600.0
25.667346954345703,600.0
25.67251420021057,601.0
25.696194171905518,601.0
25.699831008911133,601.0
25.70347809791565,601.0
25.707877159118652,600.0
25.756389141082764,598.0
25.760075092315674,600.0
25.76375722885132,600.0
25.767524242401123,606.0
25.771093130111694,616.0
25.77626919746399,633.0
25.7936692237854,656.0
25.797304153442383,685.0
25.80099606513977,719.0
25.80540418624878,756.0
25.827389001846313,792.0
25.83106517791748,824.0
25.835426092147827,849.0
25.859144926071167,864.0
25.862430095672607,871.0
25.86566400527954,867.0
25.916946172714233,853.0
25.92016911506653,832.0
25.924114227294922,807.0
25.927959203720093,777.0
25.97204613685608,746.0
25.974501132965088,715.0
25.977792024612427,686.0
26.09599995613098,662.0
26.096199989318848,641.0
26.09642219543457,624.0
26.09660005569458,609.0
26.096763134002686,598.0
26.14918613433838,591.0
26.15243911743164,587.0
26.15570306777954,586.0
26.158950090408325,587.0
26.16226625442505,590.0
26.166600942611694,594.0
26.17038106918335,600.0
26.174161195755005,606.0
26.21694803237915,613.0
26.220194101333618,619.0
26.223427057266235,625.0
26.22677516937256,632.0
26.230417251586914,638.0
26.234146118164062,643.0
26.237957239151,646.0
26.281917095184326,647.0
26.285210132598877,647.0
26.285372257232666,646.0
26.28836727142334,642.0
26.291773080825806,638.0
26.295140266418457,632.0
26.298298120498657,628.0
26.301788330078125,624.0
26.30553698539734,622.0
26.32113218307495,618.0
26.324844121932983,616.0
26.328861951828003,613.0
26.333538055419922,610.0
26.33715009689331,607.0
26.342806100845337,606.0
26.375131130218506,603.0
26.378865957260132,601.0
26.382601022720337,600.0
26.38626217842102,598.0
26.38994812965393,598.0
26.39371609687805,599.0
26.397438049316406,600.0
26.401165008544922,604.0
26.404844045639038,613.0
26.40857696533203,627.0
26.412175178527832,647.0
26.415743112564087,672.0
26.420109033584595,704.0
26.43862295150757,740.0
26.442291975021362,776.0
26.446627140045166,811.0
26.475400924682617,840.0
26.47971200942993,860.0
26.484228134155273,870.0
26.48860812187195,871.0
26.513750076293945,861.0
26.517416954040527,843.0
26.522667169570923,817.0
26.546252012252808,787.0
26.54989004135132,755.0
26.55359411239624,724.0
26.558044910430908,696.0
26.579981088638306,669.0
26.58354616165161,647.0
26.587217092514038,629.0
26.591631174087524,614.0
26.61367392539978,603.0
26.61717414855957,595.0
26.621567964553833,591.0
26.655097246170044,589.0
26.65870213508606,590.0
26.662416219711304,594.0
26.667218923568726,598.0
26.689898014068604,604.0
26.693567037582397,611.0
26.69877314567566,620.0
26.722581148147583,626.0
26.72610902786255,633.0
26.73051428794861,639.0
26.75495409965515,645.0
26.7585711479187,649.0
26.7621009349823,651.0
26.76658010482788,651.0
26.788634061813354,650.0
26.79230523109436,647.0
26.79670023918152,643.0
26.821221113204956,639.0
26.824848175048828,635.0
26.82847809791565,630.0
26.832844018936157,626.0
26.85490608215332,621.0
26.858551025390625,617.0
26.862890005111694,611.0
26.887428045272827,607.0
26.891127109527588,605.0
26.89548420906067,603.0
26.919920206069946,601.0
26.923826932907104,600.0
26.928467988967896,600.0
26.958725214004517,598.0
26.96231198310852,599.0
26.965935230255127,600.0
26.970365047454834,599.0
26.992565155029297,599.0
26.996036052703857,599.0
26.999701976776123,600.0
27.004886150360107,604.0
27.0261492729187,614.0
27.029807090759277,628.0
27.034147024154663,650.0
27.058765172958374,678.0
27.062350034713745,712.0
27.066660165786743,750.0
27.13070511817932,788.0
27.13395619392395,825.0
27.137426137924194,856.0
27.140702962875366,878.0
27.14408016204834,889.0
27.14804196357727,889.0
27.185555934906006,879.0
27.189337253570557,860.0
27.197431087493896,834.0
27.201207160949707,804.0
27.20490312576294,772.0
27.20867419242859,741.0
27.212404012680054,710.0
27.215955018997192,684.0
27.220802068710327,660.0
27.255104064941406,640.0
27.25887417793274,624.0
27.262460231781006,611.0
27.266050100326538,603.0
27.27042508125305,598.0
27.290398120880127,595.0
27.293912172317505,594.0
27.298380136489868,595.0
27.32365918159485,599.0
27.32734513282776,604.0
27.33223819732666,611.0
27.356158018112183,620.0
27.35983419418335,627.0
27.363455057144165,636.0
27.367823123931885,641.0
27.406818151474,646.0
27.410282135009766,651.0
27.41367506980896,652.0
27.417034149169922,653.0
27.42074704170227,652.0
27.42454195022583,647.0
27.46445322036743,645.0
27.467754125595093,641.0
27.47106909751892,638.0
27.474337100982666,632.0
27.477639198303223,626.0
27.543134927749634,621.0
27.566747188568115,617.0
27.585029125213623,613.0
27.588096141815186,609.0
27.59135913848877,607.0
27.594587087631226,605.0
27.6164972782135,604.0
27.61967897415161,602.0
27.622994899749756,601.0
27.626232147216797,601.0
27.629642009735107,601.0
27.63305401802063,600.0
27.63646697998047,600.0
27.640120029449463,601.0
27.643556118011475,601.0
27.647927045822144,601.0
27.651676177978516,601.0
27.655535221099854,603.0
27.684214115142822,604.0
27.687547206878662,606.0
27.69090509414673,607.0
27.694175958633423,610.0
27.721696138381958,616.0
27.72520112991333,627.0
27.72848892211914,646.0
27.75390601158142,671.0
27.75792622566223,704.0
27.771690130233765,742.0
27.77521014213562,783.0
27.778502225875854,823.0
27.883572101593018,856.0
27.886493921279907,880.0
27.88994812965393,895.0
27.893264293670654,898.0
27.897051095962524,891.0
27.900341033935547,873.0
27.91274118423462,848.0
27.933993101119995,819.0
27.937386989593506,787.0
27.94095206260681,755.0
27.952909231185913,724.0
27.956249237060547,695.0
27.95950412750244,669.0
27.963083028793335,648.0
27.966812133789062,631.0
27.970609188079834,617.0
27.999406099319458,608.0
28.002623081207275,602.0
28.006227016448975,598.0
28.009562253952026,596.0
28.012917041778564,597.0
28.016801118850708,600.0
28.031620264053345,602.0
28.034940242767334,607.0
28.03839612007141,612.0
28.041720151901245,619.0
28.04498815536499,625.0
28.06917095184326,632.0
28.072363138198853,638.0
28.076714038848877,643.0
28.090606212615967,647.0
28.197053909301758,649.0
28.20047903060913,649.0
28.203805923461914,649.0
28.206977128982544,646.0
28.21021318435669,642.0
28.214251041412354,638.0
28.217913150787354,632.0
28.221781015396118,628.0
28.225579977035522,623.0
28.245535135269165,617.0
28.24902606010437,614.0
28.25301718711853,610.0
28.266736268997192,607.0
28.269845008850098,604.0
28.27412724494934,602.0
28.27792716026306,600.0
28.3219211101532,598.0
28.325139045715332,598.0
28.32828426361084,597.0
28.33166527748108,596.0
28.33507990837097,596.0
28.339107036590576,598.0
28.342767238616943,599.0
28.34663414955139,600.0
28.381829261779785,600.0
28.385056018829346,600.0
28.38824701309204,601.0
28.391608238220215,604.0
28.39487910270691,604.0
28.397969245910645,605.0
28.401052951812744,605.0
28.46456503868103,603.0
28.514236211776733,605.0
28.517574310302734,608.0
28.520965099334717,613.0
28.52417302131653,624.0
28.52790403366089,639.0
28.53154730796814,664.0
28.535309076309204,693.0
28.539379119873047,728.0
28.573298931121826,767.0
28.57660698890686,806.0
28.62728714942932,840.0
28.62747025489807,867.0
28.627641201019287,884.0
28.627819061279297,891.0
28.628013134002686,888.0
28.628183126449585,872.0
28.628366231918335,848.0
28.628525018692017,819.0
28.63048815727234,787.0
28.633655071258545,754.0
28.636823177337646,722.0
28.64014220237732,691.0
28.643357038497925,665.0
28.686983108520508,643.0
28.690165996551514,625.0
28.69373321533203,612.0
28.696823120117188,601.0
28.70047903060913,594.0
28.704263925552368,590.0
28.707961082458496,589.0
28.744295120239258,590.0
28.74763321876526,595.0
28.75140619277954,600.0
28.754631280899048,607.0
28.758459091186523,615.0
28.8044331073761,623.0
28.807963132858276,632.0
28.853190183639526,639.0
28.856507301330566,647.0
28.859588146209717,651.0
28.86283802986145,654.0
28.8666512966156,655.0
28.870443105697632,655.0
28.906965017318726,653.0
28.910283088684082,648.0
28.91347312927246,644.0
28.916712999343872,639.0
28.92015314102173,633.0
28.92343020439148,627.0
28.926988124847412,621.0
28.9418523311615,615.0
28.9450740814209,611.0
28.94835925102234,607.0
28.951770067214966,605.0
28.954755067825317,602.0
28.998388051986694,600.0
29.001604080200195,600.0
29.00533103942871,599.0
29.00839114189148,598.0
29.01166319847107,598.0
29.015480041503906,597.0
29.058220148086548,599.0
29.061371088027954,599.0
29.06471300125122,600.0
29.068148136138916,600.0
29.071492195129395,600.0
29.119479179382324,600.0
29.122790098190308,601.0
29.12598204612732,603.0
29.129175186157227,604.0
29.13277792930603,607.0
29.13671112060547,613.0
29.14048719406128,624.0
29.178184032440186,642.0
29.18142318725586,667.0
29.18472123146057,699.0
29.187997102737427,734.0
29.191341161727905,771.0
29.238222122192383,806.0
29.241456270217896,837.0
29.244849920272827,861.0
29.248094081878662,874.0
29.251166105270386,876.0
29.254431009292603,868.0
29.29692006111145,850.0
29.300252199172974,826.0
29.30336904525757,798.0
29.306729078292847,767.0
29.309975147247314,736.0
29.313030242919922,707.0
29.3595290184021,680.0
29.36277723312378,658.0
29.365974187850952,640.0
29.369208097457886,623.0
29.372814178466797,611.0
29.376728057861328,601.0
29.380584001541138,596.0
29.41824722290039,593.0
29.421552181243896,592.0
29.42516827583313,594.0
29.428526163101196,598.0
29.431851148605347,604.0
29.435580253601074,611.0
29.480776071548462,617.0
29.48413896560669,624.0
29.48721408843994,631.0
29.490539073944092,637.0
29.49378991127014,642.0
29.54338002204895,645.0
29.546365976333618,647.0
29.549705982208252,649.0
29.553023099899292,650.0
29.556295156478882,647.0
29.55944013595581,643.0
29.562592029571533,638.0
29.604573965072632,632.0
29.607760190963745,626.0
29.610774993896484,621.0
29.614102125167847,615.0
29.61716103553772,610.0
29.62069606781006,606.0
29.6617591381073,601.0
29.664808988571167,599.0
29.668132066726685,597.0
29.671452283859253,596.0
29.67552423477173,594.0
29.71575117111206,593.0
29.718992233276367,593.0
29.722105264663696,595.0
29.7252140045166,598.0
29.72857117652893,600.0
29.766969203948975,600.0
29.770308256149292,600.0
29.77384305000305,601.0
29.78282904624939,601.0
29.785921096801758,601.0
29.789229154586792,602.0
29.792526245117188,601.0
29.795664072036743,602.0
29.83949589729309,604.0
29.842595100402832,606.0
29.84577512741089,611.0
29.849102020263672,620.0
29.85236406326294,636.0
29.855610132217407,658.0
29.877959966659546,686.0
29.88119411468506,720.0
29.885594129562378,759.0
29.910088062286377,798.0
29.913796186447144,835.0
29.91815710067749,864.0
29.958112001419067,884.0
29.961366176605225,893.0
29.965314149856567,890.0
29.9689621925354,877.0
29.972751140594482,856.0
29.977261066436768,828.0
29.998828172683716,798.0
30.002360105514526,767.0
30.007730960845947,736.0
30.03126621246338,707.0
30.03487801551819,682.0
30.038527965545654,663.0
30.0432550907135,645.0
30.068714141845703,632.0
30.072731256484985,620.0
30.077343940734863,612.0
30.08270812034607,605.0
30.110018014907837,601.0
30.113867044448853,599.0
30.11868119239807,599.0
30.137524127960205,600.0
30.141131162643433,603.0
30.14571213722229,607.0
30.214802980422974,612.0
30.21781015396118,616.0
30.221517086029053,623.0
30.224853992462158,628.0
30.228142023086548,633.0
30.231564044952393,636.0
30.26117515563965,639.0
30.264435052871704,641.0
30.26801896095276,639.0
30.271816968917847,639.0
30.27523422241211,637.0
30.278898000717163,633.0
30.283334255218506,628.0
30.28984308242798,623.0
30.295225143432617,617.0
30.321391105651855,613.0
30.32550024986267,608.0
30.330003023147583,605.0
30.335453987121582,601.0
30.36054515838623,599.0
30.36465620994568,596.0
30.38881826400757,595.0
30.392386198043823,592.0
30.39604616165161,591.0
30.39965796470642,591.0
30.404167890548706,591.0
30.426249980926514,592.0
30.429906129837036,593.0
30.434151887893677,594.0
30.473422050476074,596.0
30.476555109024048,597.0
30.479738235473633,598.0
30.483137130737305,598.0
30.4863600730896,598.0
30.56702208518982,596.0
30.57012104988098,596.0
30.57351517677307,596.0
30.576837062835693,595.0
30.580299139022827,595.0
30.583602905273438,595.0
30.58767008781433,595.0
30.591570138931274,595.0
30.59521198272705,595.0
30.598818063735962,595.0
30.60305905342102,599.0
30.641045093536377,607.0
30.673248052597046,622.0
30.67649507522583,643.0
30.679628133773804,671.0
30.683019161224365,706.0
30.686597108840942,744.0
30.6904399394989,785.0
30.694040060043335,825.0
30.69781517982483,856.0
30.73446011543274,879.0
30.737663984298706,891.0
30.741689205169678,892.0
30.74547815322876,882.0
30.748796939849854,864.0
30.752032995224,836.0
30.769217014312744,806.0
30.77238917350769,772.0
30.775448083877563,742.0
30.88217306137085,712.0
30.88520121574402,686.0
30.888431072235107,664.0
30.891765117645264,647.0
30.894984006881714,635.0
30.898826122283936,624.0
30.901912212371826,617.0
30.920422315597534,610.0
30.923861980438232,604.0
30.927480220794678,601.0
30.931259155273438,600.0
30.934884071350098,600.0
30.938834190368652,601.0
30.942423105239868,603.0
30.94682025909424,608.0
30.966321229934692,612.0
30.969564199447632,617.0
30.973182916641235,624.0
30.977925062179565,628.0
30.981378078460693,632.0
30.985822916030884,635.0
31.02662706375122,637.0
31.02972412109375,639.0
31.033401250839233,638.0
31.036965131759644,636.0
31.041263103485107,633.0
31.06136393547058,629.0
31.065404176712036,625.0
31.068372011184692,620.0
31.071819067001343,615.0
31.077818155288696,610.0
31.10800313949585,605.0
31.112345218658447,600.0
31.117120027542114,598.0
31.141603231430054,594.0
31.145178079605103,592.0
31.14881730079651,591.0
31.173097133636475,589.0
31.180706024169922,588.0
31.195178985595703,589.0
31.19845199584961,588.0
31.201836109161377,588.0
31.205256938934326,586.0
31.259369134902954,587.0
31.262775182724,587.0
31.26610517501831,587.0
31.26991319656372,588.0
31.273391246795654,588.0
31.276756048202515,589.0
31.280049324035645,589.0
31.319345235824585,590.0
31.32289218902588,592.0
31.326178073883057,593.0
31.329713106155396,593.0
31.332940101623535,594.0
31.33644700050354,595.0
31.377000093460083,596.0
31.38024616241455,597.0
31.383416175842285,596.0
31.386701107025146,596.0
31.39049506187439,595.0
31.410628080368042,594.0
31.413856029510498,593.0
31.416900157928467,591.0
31.44496512413025,592.0
31.4483482837677,596.0
31.452909231185913,605.0
31.476778984069824,620.0
31.47992706298828,644.0
31.483180046081543,674.0
31.486715078353882,711.0
31.51122212409973,751.0
31.514802932739258,790.0
31.51880407333374,827.0
31.5231511592865,855.0
31.54498815536499,876.0
31.548458099365234,885.0
31.55297827720642,883.0
31.576780080795288,871.0
31.58047914505005,850.0
31.584257125854492,823.0
31.593306064605713,792.0
31.622502088546753,758.0
31.625910997390747,726.0
31.630385875701904,696.0
31.66606307029724,669.0
31.669817209243774,644.0
31.673200130462646,626.0
31.676767110824585,611.0
31.68089509010315,601.0
31.700568199157715,593.0
31.703670024871826,591.0
31.70698118209839,590.0
31.7115261554718,589.0
31.738758087158203,590.0
31.74212098121643,595.0
31.747364044189453,600.0
31.77125096321106,605.0
31.774904012680054,612.0
31.77997899055481,619.0
31.803791046142578,625.0
31.807342052459717,632.0
31.811289072036743,636.0
31.81574010848999,639.0
31.837430000305176,641.0
31.84117102622986,643.0
31.845553874969482,642.0
31.87003803253174,639.0
31.873697996139526,638.0
31.877808094024658,632.0
31.882094144821167,627.0
31.903760194778442,623.0
31.90731120109558,617.0
31.911845207214355,611.0
31.936479091644287,606.0
31.94006609916687,600.0
31.9447660446167,596.0
31.969300985336304,592.0
31.97247314453125,590.0
31.977761030197144,588.0
32.00049614906311,585.0
32.00391125679016,585.0
32.007282972335815,584.0
32.03056716918945,583.0
32.03401017189026,583.0
32.037992000579834,584.0
32.08227300643921,586.0
32.08530831336975,588.0
32.08900809288025,590.0
32.092329025268555,591.0
32.096824169158936,592.0
32.10248804092407,592.0
32.10624313354492,592.0
32.11076617240906,592.0
32.13511610031128,593.0
32.1387152671814,595.0
32.14338421821594,595.0
32.16544318199158,595.0
32.16881608963013,597.0
32.17366313934326,600.0
32.19696521759033,608.0
32.200114011764526,620.0
32.20393705368042,635.0
32.230080127716064,657.0
32.233736991882324,686.0
32.2382071018219,719.0
32.26138496398926,752.0
32.26628112792969,787.0
32.271491050720215,819.0
32.31033492088318,845.0
32.31369924545288,862.0
32.31779098510742,870.0
32.32168221473694,866.0
32.32532501220703,852.0
32.329002141952515,830.0
32.333731174468994,802.0
32.357710123062134,771.0
32.361210107803345,739.0
32.36645197868347,706.0
32.39377522468567,675.0
32.39836311340332,649.0
32.40207624435425,628.0
32.40613102912903,609.0
32.43268823623657,595.0
32.43618416786194,586.0
32.44058322906494,579.0
32.46631121635437,577.0
32.47030019760132,579.0
32.47440004348755,582.0
32.47965431213379,587.0
32.501874923706055,594.0
32.505444049835205,601.0
32.51018023490906,609.0
32.517444133758545,617.0
32.52305507659912,624.0
32.54898810386658,632.0
32.55293798446655,638.0
32.557804107666016,642.0
32.56308197975159,644.0
32.588845014572144,644.0
32.59234404563904,642.0
32.59683299064636,639.0
32.657394886016846,635.0
32.66033911705017,630.0
32.66420006752014,625.0
32.66796112060547,620.0
32.671876192092896,614.0
32.70832896232605,608.0
32.71156311035156,603.0
32.71502423286438,599.0
32.71831130981445,595.0
32.721822023391724,593.0
32.725523948669434,591.0
32.72905111312866,589.0
32.73300099372864,587.0
32.73871612548828,587.0
32.758732080459595,586.0
32.76252222061157,586.0
32.76706314086914,586.0
32.791253089904785,586.0
32.7949161529541,588.0
32.798572063446045,589.0
32.80346322059631,590.0
32.83257699012756,591.0
32.836020946502686,591.0
32.84004521369934,591.0
32.84587025642395,591.0
32.868947982788086,590.0
32.87263894081116,589.0
32.87796401977539,589.0
32.90254616737366,592.0
32.90613031387329,599.0
32.909667015075684,611.0
32.96714401245117,631.0
32.97038793563843,657.0
32.97379517555237,690.0
32.977110147476196,727.0
32.980690240859985,766.0
32.98395323753357,804.0
32.98816514015198,837.0
32.99202299118042,863.0
33.025336027145386,879.0
33.028980016708374,884.0
33.032655239105225,880.0
33.03619623184204,865.0
33.04072713851929,841.0
33.06298327445984,814.0
33.0664541721344,782.0
33.07050323486328,748.0
33.07637310028076,716.0
33.096564054489136,686.0
33.10056233406067,659.0
33.10527205467224,636.0
33.1325740814209,618.0
33.136622190475464,605.0
33.141316175460815,594.0
33.14612007141113,587.0
33.172523975372314,583.0
33.176520109176636,582.0
33.18041014671326,584.0
33.184078216552734,587.0
33.18860912322998,592.0
33.21555995941162,599.0
33.219277143478394,606.0
33.2229859828949,613.0
33.22770714759827,620.0
33.28563714027405,628.0
33.28907108306885,635.0
33.29253005981445,639.0
33.29580903053284,643.0
33.29914593696594,646.0
33.302688121795654,647.0
33.3313422203064,646.0
33.33530020713806,643.0
33.339370012283325,641.0
33.34472393989563,636.0
33.367940187454224,630.0
33.37187099456787,624.0
33.37645220756531,618.0
33.380144119262695,611.0
33.38456130027771,605.0
33.41312217712402,600.0
33.416712045669556,595.0
33.42094111442566,592.0
33.42420411109924,590.0
33.44623899459839,589.0
33.44961619377136,589.0
33.45420694351196,590.0
33.478769302368164,590.0
33.48261213302612,590.0
33.48819708824158,591.0
33.49272131919861,592.0
33.52000308036804,591.0
33.52375602722168,592.0
33.527714014053345,592.0
33.555132150650024,591.0
33.558995962142944,591.0
33.56307506561279,590.0
33.567522048950195,591.0
33.587552070617676,592.0
33.59125018119812,593.0
33.59582304954529,596.0
33.60379600524902,602.0
33.60929608345032,612.0
33.64036989212036,630.0
33.644020080566406,654.0
33.64784097671509,684.0
33.653043031692505,718.0
33.675015926361084,757.0
33.67870903015137,796.0
33.68308210372925,831.0
33.707555055618286,860.0
33.71125102043152,881.0
33.71656823158264,891.0
33.73930311203003,889.0
33.743836879730225,879.0
33.74859595298767,859.0
33.77499008178711,831.0
33.7786591053009,799.0
33.783080101013184,766.0
33.80761122703552,733.0
33.81128811836243,702.0
33.815245151519775,675.0
33.818968057632446,650.0
33.84539604187012,630.0
33.84879803657532,614.0
33.852758169174194,603.0
33.85706615447998,594.0
33.880136013031006,588.0
33.883848905563354,586.0
33.888458013534546,587.0
33.89661693572998,589.0
33.901506185531616,594.0
33.92757821083069,600.0
33.93130397796631,607.0
33.934855222702026,614.0
33.94433903694153,620.0
33.94874715805054,627.0
33.97755694389343,633.0
33.981096029281616,639.0
33.98559904098511,643.0
34.01505422592163,647.0
34.018723249435425,649.0
34.02276825904846,649.0
34.02702212333679,648.0
34.05392003059387,643.0
34.05742621421814,638.0
34.06141424179077,633.0
34.066920042037964,627.0
34.09127402305603,622.0
34.09480810165405,616.0
34.09881806373596,611.0
34.10320711135864,606.0
34.12763595581055,602.0
34.13124203681946,600.0
34.13623118400574,598.0
34.203901052474976,595.0
34.2502760887146,594.0
34.25395607948303,594.0
34.25783014297485,594.0
34.26185607910156,595.0
34.265398025512695,594.0
34.269076108932495,595.0
34.27296304702759,595.0
34.27645802497864,596.0
34.28002905845642,597.0
34.28362321853638,597.0
34.28735113143921,599.0
34.29137301445007,599.0
34.29585790634155,600.0
34.30028414726257,600.0
34.304924964904785,600.0
34.32065510749817,603.0
34.32479906082153,609.0
34.32922005653381,620.0
34.33441114425659,637.0
34.356417179107666,660.0
34.36012125015259,690.0
34.36461901664734,723.0
34.3889422416687,760.0
34.392524003982544,796.0
34.396937131881714,831.0
34.42125225067139,857.0
34.424927949905396,875.0
34.42931318283081,882.0
34.458479166030884,879.0
34.46171021461487,867.0
34.4649760723114,846.0
34.4691641330719,820.0
34.47357225418091,787.0
34.49514389038086,755.0
34.49898409843445,725.0
34.50333118438721,695.0
34.52787208557129,668.0
34.531567096710205,644.0
34.53694009780884,626.0
34.562833309173584,610.0
34.56639099121094,599.0
34.57076811790466,590.0
34.595123052597046,585.0
34.59861516952515,584.0
34.602782011032104,586.0
34.6071560382843,590.0
34.62897801399231,595.0
34.63235306739807,601.0
34.637127161026,609.0
34.66790509223938,617.0
34.67144227027893,625.0
34.675578117370605,634.0
34.680880069732666,642.0
34.70360016822815,648.0
34.707961082458496,652.0
34.71160125732422,654.0
34.71605110168457,654.0
34.740225076675415,652.0
34.74380326271057,650.0
34.74728608131409,646.0
34.7719612121582,641.0
34.774901151657104,636.0
34.778215169906616,632.0
34.80533027648926,626.0
34.808677196502686,621.0
34.81265616416931,616.0
34.81763005256653,611.0
34.839345932006836,606.0
34.84250807762146,603.0
34.84580206871033,600.0
34.86442708969116,599.0
34.86808919906616,597.0
34.873510122299194,596.0
34.89794898033142,595.0
34.901171922683716,595.0
34.90673208236694,595.0
34.93005013465881,595.0
34.93390893936157,596.0
34.93909311294556,597.0
34.96775412559509,599.0
34.971421003341675,600.0
34.97597813606262,602.0
34.98084998130798,603.0
35.00132513046265,604.0
35.00497102737427,606.0
35.00924110412598,608.0
35.03383803367615,609.0
35.03741908073425,615.0
35.04278612136841,624.0
35.06929898262024,638.0
35.07254719734192,658.0
35.07630515098572,684.0
35.07988715171814,716.0
35.08422613143921,751.0
35.10516929626465,788.0
35.108882188797,824.0
35.11324214935303,852.0
35.13761115074158,873.0
35.14141607284546,884.0
35.14626407623291,885.0
35.15171813964844,874.0
35.17907404899597,856.0
35.18258810043335,830.0
35.18688893318176,800.0
35.211390018463135,768.0
35.21497917175293,736.0
35.219534158706665,705.0
35.2438850402832,677.0
35.24758505821228,653.0
35.25236415863037,634.0
35.280219078063965,619.0
35.283889293670654,608.0
35.28799510002136,601.0
35.29237413406372,596.0
35.313807249069214,594.0
35.31739902496338,595.0
35.321404218673706,600.0
35.325881242752075,607.0
35.347684144973755,616.0
35.35136413574219,625.0
35.35699105262756,634.0
35.37931704521179,643.0
35.38250112533569,651.0
35.3866081237793,659.0
35.41276431083679,664.0
35.41628122329712,668.0
35.4207239151001,671.0
35.44497323036194,670.0
35.448668241500854,669.0
35.45263624191284,665.0
35.4582462310791,660.0
35.4818639755249,654.0
35.48604607582092,647.0
35.50502920150757,641.0
35.50859808921814,635.0
35.512561321258545,628.0
35.51699924468994,624.0
35.53882312774658,620.0
35.54248023033142,618.0
35.547341108322144,615.0
35.570493936538696,612.0
35.57422995567322,611.0
35.57801604270935,610.0
35.5833740234375,610.0
35.611321210861206,610.0
35.61495614051819,610.0
35.61994004249573,609.0
35.64769411087036,609.0
35.651151180267334,609.0
35.65516805648804,609.0
35.65961503982544,609.0
35.684431076049805,609.0
35.687724113464355,611.0
35.69092106819153,615.0
35.69443416595459,623.0
35.718738317489624,635.0
35.72238326072693,654.0
35.72651815414429,680.0
35.73197412490845,711.0
35.753836154937744,745.0
35.75734210014343,781.0
35.76197814941406,815.0
35.78630089759827,844.0
35.78991413116455,865.0
35.79476809501648,877.0
35.81987929344177,880.0
35.823230028152466,873.0
35.82813119888306,857.0
35.85253715515137,833.0
35.856160163879395,806.0
35.86059808731079,775.0
35.89277219772339,743.0
35.89634728431702,713.0
35.90010404586792,686.0
35.90419411659241,663.0
35.90858221054077,643.0
35.93019413948059,628.0
35.9337899684906,616.0
35.937878131866455,608.0
35.94273114204407,602.0
35.96525001525879,600.0
35.96876120567322,600.0
35.97309422492981,601.0
35.99673128128052,607.0
36.00011706352234,614.0
36.003957986831665,623.0
36.050873041152954,632.0
36.05454421043396,641.0
36.09295892715454,651.0
36.09659695625305,658.0
36.100297927856445,664.0
36.104122161865234,667.0
36.10786199569702,669.0
36.11156105995178,668.0
36.115570068359375,666.0
36.119625091552734,662.0
36.124059200286865,657.0
36.14508318901062,651.0
36.15065813064575,645.0
36.176321029663086,639.0
36.176518201828,632.0
36.18003296852112,626.0
36.18390107154846,621.0
36.1872022151947,616.0
36.210127115249634,614.0
36.21374320983887,611.0
36.21899127960205,609.0
36.242473125457764,608.0
36.24601125717163,608.0
36.2505202293396,608.0
36.27536201477051,608.0
36.279033184051514,609.0
36.28295016288757,611.0
36.28625726699829,612.0
36.30888295173645,613.0
36.31237602233887,615.0
36.317156076431274,615.0
36.341307163238525,615.0
36.3449342250824,615.0
36.349260091781616,615.0
36.3738272190094,615.0
36.37733006477356,618.0
36.38088393211365,627.0
36.385632038116455,641.0
36.4074170589447,663.0
36.41120409965515,691.0
36.41565012931824,725.0
36.43999695777893,760.0
36.44365906715393,799.0
36.44825506210327,836.0
36.47321391105652,866.0
36.47675108909607,888.0
36.481070041656494,901.0
36.504993200302124,902.0
36.508687257766724,892.0
36.512675046920776,874.0
36.51706314086914,849.0
36.538798093795776,820.0
36.54229712486267,789.0
36.54621410369873,759.0
36.56965208053589,731.0
36.57465124130249,705.0
36.579148054122925,684.0
36.58403992652893,664.0
36.62714219093323,649.0
36.63018608093262,636.0
36.633647203445435,628.0
36.63699913024902,621.0
36.64140224456787,617.0
36.66392207145691,614.0
36.66746807098389,614.0
36.67150115966797,615.0
36.676783084869385,616.0
36.69688010215759,621.0
36.70063304901123,626.0
36.70900106430054,632.0
36.71369409561157,639.0
36.74026703834534,647.0
36.74364900588989,653.0
36.74806809425354,656.0
36.78776025772095,658.0
36.79127311706543,659.0
36.79503798484802,660.0
36.79832720756531,659.0
36.80167603492737,655.0
36.80514907836914,652.0
36.82440400123596,647.0
36.8274450302124,643.0
36.83315300941467,639.0
36.85772228240967,635.0
36.86121606826782,631.0
36.866375207901,628.0
36.890186071395874,624.0
36.89368510246277,620.0
36.8971951007843,616.0
36.92258095741272,612.0
36.92615008354187,610.0
36.93074822425842,608.0
36.95502519607544,607.0
36.95844316482544,607.0
36.962849140167236,608.0
36.98755931854248,608.0
36.99110722541809,608.0
36.99510312080383,608.0
36.99976396560669,609.0
37.01895499229431,609.0
37.02249813079834,609.0
37.0269730091095,609.0
37.05132699012756,609.0
37.05490827560425,610.0
37.059136152267456,611.0
37.06315493583679,612.0
37.08508324623108,614.0
37.08881902694702,617.0
37.09294629096985,623.0
37.11763405799866,632.0
37.12111520767212,646.0
37.125612020492554,668.0
37.15008807182312,694.0
37.15362811088562,727.0
37.15811204910278,764.0
37.170310258865356,803.0
37.173609018325806,839.0
37.20012331008911,870.0
37.20378232002258,892.0
37.20719313621521,903.0
37.23261904716492,902.0
37.23626232147217,893.0
37.24025821685791,876.0
37.24461531639099,852.0
37.2665491104126,825.0
37.270124197006226,794.0
37.27451229095459,763.0
37.30008029937744,734.0
37.30369424819946,709.0
37.30741620063782,688.0
37.332672119140625,669.0
37.33650612831116,655.0
37.340977907180786,643.0
37.365175008773804,634.0
37.36906313896179,628.0
37.37308692932129,624.0
37.37735295295715,621.0
37.39912819862366,620.0
37.402876138687134,619.0
37.407554149627686,621.0
37.42625832557678,624.0
37.429768085479736,627.0
37.43335294723511,632.0
37.458752155303955,637.0
37.462300300598145,641.0
37.46676206588745,647.0
37.49127817153931,651.0
37.49492812156677,654.0
37.49890112876892,655.0
37.503576040267944,655.0
37.524436950683594,656.0
37.530073165893555,654.0
37.534884214401245,652.0
37.56379699707031,647.0
37.567497968673706,643.0
37.57135796546936,638.0
37.576563119888306,634.0
37.59754705429077,628.0
37.600980043411255,623.0
37.60536026954651,618.0
37.63012409210205,613.0
37.63373589515686,608.0
37.637397050857544,607.0
37.641746282577515,605.0
37.647064208984375,605.0
37.67506504058838,605.0
37.678683280944824,605.0
37.68398118019104,604.0
37.707786083221436,604.0
37.711323261260986,604.0
37.7157199382782,604.0
37.740090131759644,605.0
37.74343013763428,607.0
37.74786829948425,607.0
37.77387714385986,608.0
37.7773540019989,608.0
37.78303408622742,610.0
37.8064751625061,611.0
37.81007218360901,613.0
37.81416702270508,614.0
37.81816601753235,615.0
37.840157985687256,615.0
37.84379434585571,615.0
37.8482711315155,616.0
37.872772216796875,617.0
37.876485109329224,617.0
37.880516052246094,617.0
37.8864381313324,617.0
37.90631604194641,622.0
37.90993118286133,631.0
37.91431498527527,646.0
37.93904113769531,668.0
37.942864179611206,694.0
37.94821619987488,727.0
37.97385287284851,763.0
37.97737717628479,801.0
37.98174691200256,836.0
37.98603916168213,864.0
38.00761699676514,886.0
38.0112042427063,897.0
38.01579403877258,897.0
38.04083299636841,886.0
38.04400992393494,867.0
38.049076080322266,842.0
38.06517505645752,814.0
38.06878423690796,784.0
38.073097944259644,755.0
38.09761905670166,728.0
38.101497173309326,703.0
38.105929136276245,681.0
38.11029028892517,664.0
38.13978123664856,650.0
38.142903089523315,639.0
38.14643931388855,632.0
38.19729995727539,626.0
38.200319051742554,623.0
38.20398426055908,620.0
38.20724821090698,620.0
38.210448265075684,620.0
38.21383190155029,623.0
38.24050307273865,625.0
38.24389314651489,631.0
38.247678995132446,636.0
38.25190496444702,640.0
38.27416110038757,644.0
38.27759909629822,648.0
38.28172707557678,651.0
38.28614020347595,653.0
38.30796504020691,655.0
38.311464071273804,657.0
38.31459307670593,658.0
38.343470096588135,656.0
38.347490072250366,653.0
38.35150408744812,649.0
38.3567008972168,643.0
38.37888312339783,637.0
38.382418155670166,633.0
38.38686013221741,628.0
38.41135120391846,624.0
38.41505813598633,621.0
38.41945123672485,616.0
38.44316506385803,613.0
38.44657015800476,610.0
38.45043706893921,609.0
38.49726104736328,608.0
38.500380992889404,608.0
38.503807067871094,608.0
38.50706887245178,608.0
38.51057410240173,608.0
38.51435112953186,608.0
38.51812195777893,608.0
38.55039310455322,609.0
38.55388307571411,609.0
38.55759406089783,611.0
38.56112003326416,612.0
38.56555700302124,614.0
38.5863471031189,615.0
38.58998107910156,616.0
38.59449219703674,617.0
38.61887812614441,618.0
38.62251806259155,619.0
38.62685513496399,621.0
38.65132999420166,622.0
38.655089139938354,622.0
38.66118097305298,623.0
38.66663312911987,624.0
38.705658197402954,629.0
38.70914316177368,639.0
38.7129271030426,654.0
38.716586112976074,676.0
38.72186017036438,702.0
38.741355180740356,735.0
38.74466609954834,768.0
38.748152017593384,802.0
38.75148606300354,832.0
38.775193214416504,857.0
38.7788941860199,872.0
38.78322410583496,877.0
38.81562805175781,873.0
38.818809032440186,860.0
38.821935176849365,840.0
38.82571220397949,815.0
38.869572162628174,787.0
38.87281322479248,759.0
38.87610602378845,732.0
38.8795850276947,708.0
38.88274908065796,686.0
38.93343997001648,668.0
38.93643498420715,654.0
38.939677000045776,643.0
38.9431049823761,634.0
38.94674205780029,629.0
38.949828147888184,627.0
38.95303392410278,628.0
38.99992513656616,628.0
39.00288510322571,633.0
39.006113052368164,639.0
39.009443044662476,646.0
39.01315402984619,652.0
39.01645112037659,659.0
39.01994323730469,665.0
39.067156076431274,671.0
39.07036900520325,676.0
39.07371711730957,680.0
39.07685303688049,682.0
39.080440044403076,681.0
39.08486294746399,678.0
39.10514521598816,673.0
39.10877513885498,667.0
39.11322212219238,662.0
39.13774108886719,655.0
39.14138603210449,648.0
39.14554810523987,641.0
39.14991998672485,635.0
39.171550989151,629.0
39.17531704902649,626.0
39.1793532371521,624.0
39.18382000923157,620.0
39.20505404472351,618.0
39.2088520526886,617.0
39.213059186935425,615.0
39.23757219314575,616.0
39.24114513397217,616.0
39.2457480430603,616.0
39.27008509635925,617.0
39.273717164993286,618.0
39.27902007102966,619.0
39.30284810066223,618.0
39.30643320083618,619.0
39.310861110687256,621.0
39.345468282699585,622.0
39.34919309616089,624.0
39.35284399986267,625.0
39.35643434524536,625.0
39.3597309589386,625.0
39.39844512939453,626.0
39.40153503417969,626.0
39.40499830245972,628.0
39.408289194107056,632.0
39.41204309463501,642.0
39.41532897949219,655.0
39.45695209503174,677.0
39.460291147232056,704.0
39.463659048080444,736.0
39.46676516532898,774.0
39.47004699707031,810.0
39.49389123916626,843.0
39.4974262714386,871.0
39.501487255096436,890.0
39.5058171749115,898.0
39.52756094932556,896.0
39.53102111816406,886.0
39.535420179367065,867.0
39.55927014350891,841.0
39.563024282455444,813.0
39.56669211387634,783.0
39.57181429862976,754.0
39.57642126083374,727.0
39.60379910469055,704.0
39.607320070266724,684.0
39.61164903640747,667.0
39.636285066604614,653.0
39.6397020816803,643.0
39.64400506019592,635.0
39.71333622932434,628.0
39.71647620201111,624.0
39.7196831703186,620.0
39.723000049591064,620.0
39.72638010978699,620.0
39.7304630279541,623.0
39.73418593406677,627.0
39.73796510696411,632.0
39.77700924873352,636.0
39.780359983444214,642.0
39.78386402130127,647.0
39.78800106048584,650.0
39.79178333282471,653.0
39.84130001068115,656.0
39.844099044799805,657.0
39.847273111343384,657.0
39.85065221786499,656.0
39.85402798652649,653.0
39.858153104782104,649.0
39.86198806762695,643.0
39.86557412147522,637.0
39.901034116744995,632.0
39.90434002876282,627.0
39.90814518928528,623.0
39.91181802749634,618.0
39.915523052215576,615.0
39.92878794670105,611.0
39.93290901184082,608.0
39.93728733062744,605.0
39.96376299858093,602.0
40.032268047332764,601.0
40.03536629676819,600.0
40.03886103630066,599.0
40.04208731651306,599.0
40.045369148254395,600.0
40.04934024810791,601.0
40.05312514305115,604.0
40.05697727203369,607.0
40.066750049591064,609.0
40.06996297836304,612.0
40.07325530052185,614.0
40.076977252960205,616.0
40.08078217506409,618.0
40.0852952003479,619.0
40.09071111679077,620.0
40.1190242767334,620.0
40.122491121292114,619.0
40.126880168914795,619.0
40.15142512321472,619.0
40.15503811836243,622.0
40.15994596481323,628.0
40.18538212776184,641.0
40.18889021873474,662.0
40.193854093551636,688.0
40.2176570892334,720.0
40.217817068099976,757.0
40.221235036849976,793.0
40.225821018218994,824.0
40.25019431114197,851.0
40.25402331352234,870.0
40.258180141448975,880.0
40.28816318511963,877.0
40.2928581237793,866.0
40.29512023925781,849.0
40.29925203323364,826.0
40.3238480091095,797.0
40.327351093292236,768.0
40.33148217201233,738.0
40.335745096206665,709.0
40.3601930141449,684.0
40.36384725570679,664.0
40.36921811103821,647.0
40.39301300048828,636.0
40.39633798599243,627.0
40.40072822570801,619.0
40.425079107284546,613.0
40.42883515357971,608.0
40.43293905258179,607.0
40.43735408782959,605.0
40.45894908905029,606.0
40.462478160858154,607.0
40.46717596054077,610.0
40.49387812614441,614.0
40.497771978378296,618.0
40.50190997123718,622.0
40.50612711906433,627.0
40.527677059173584,633.0
40.53120303153992,637.0
40.536630153656006,640.0
40.5601589679718,642.0
40.56381916999817,644.0
40.56819820404053,645.0
40.591986894607544,641.0
40.637022972106934,639.0
40.640377044677734,635.0
40.643872022628784,631.0
40.64809608459473,627.0
40.65188717842102,623.0
40.65577220916748,618.0
40.69089198112488,615.0
40.694340229034424,611.0
40.69801902770996,610.0
40.740928173065186,609.0
40.7441930770874,608.0
40.74755620956421,608.0
40.75086522102356,606.0
40.754125118255615,606.0
40.75808000564575,609.0
40.761837005615234,612.0
40.765151023864746,616.0
40.80601716041565,620.0
40.81692314147949,625.0
40.82009220123291,631.0
40.82330322265625,636.0
40.82681393623352,640.0
40.83015823364258,643.0
40.83344912528992,647.0
40.83685302734375,647.0
40.87744998931885,647.0
40.88033199310303,648.0
40.88351321220398,648.0
40.88693618774414,647.0
40.8907310962677,645.0
40.894458055496216,642.0
40.89800715446472,638.0
40.91771602630615,635.0
40.9213171005249,632.0
40.92571806907654,629.0
40.95011830329895,626.0
40.95359206199646,626.0
40.95798206329346,630.0
40.982723236083984,639.0
40.98640513420105,655.0
40.9909770488739,676.0
41.01636719703674,704.0
41.02015519142151,738.0
41.02419710159302,773.0
41.028494119644165,808.0
41.05008101463318,836.0
41.053765296936035,857.0
41.057695150375366,869.0
41.06203508377075,871.0
41.08403921127319,865.0
41.0876030921936,848.0
41.09254503250122,825.0
41.11584210395813,797.0
41.11929392814636,768.0
41.12382698059082,736.0
41.148895025253296,707.0
41.15263223648071,682.0
41.156941175460815,659.0
41.18127417564392,639.0
41.18501925468445,625.0
41.190207958221436,615.0
41.194947242736816,608.0
41.22130012512207,601.0
41.22538495063782,598.0
41.22980213165283,598.0
41.265483140945435,599.0
41.26922106742859,603.0
41.27285408973694,608.0
41.276342153549194,614.0
41.28088712692261,621.0
41.3014190196991,628.0
41.30560111999512,636.0
41.30935597419739,642.0
41.312822103500366,647.0
41.33518695831299,651.0
41.338948249816895,655.0
41.3432252407074,656.0
41.367669105529785,656.0
41.37148594856262,653.0
41.37660503387451,649.0
41.400182008743286,642.0
41.40383529663086,636.0
41.40781593322754,630.0
41.432697057724,622.0
41.436317920684814,615.0
41.44086313247681,608.0
41.465609073638916,602.0
41.46946310997009,596.0
41.47341704368591,592.0
41.47690510749817,589.0
41.48155426979065,586.0
41.50646090507507,585.0
41.51027989387512,584.0
41.51379609107971,583.0
41.53896498680115,584.0
41.54262709617615,585.0
41.54706001281738,587.0
41.571386098861694,589.0
41.57503700256348,591.0
41.58031415939331,594.0
41.60397529602051,597.0
41.607675075531006,599.0
41.61286497116089,599.0
41.61690711975098,600.0
41.63770389556885,600.0
41.64132809638977,601.0
41.64570713043213,602.0
41.67149019241333,603.0
41.67504525184631,605.0
41.67938828468323,606.0
41.70381999015808,606.0
41.70758819580078,607.0
41.711546182632446,607.0
41.715182065963745,607.0
41.73898124694824,607.0
41.74262309074402,608.0
41.74700903892517,608.0
41.77151322364807,607.0
41.77504014968872,607.0
41.77943515777588,608.0
41.80384802818298,611.0
41.80743908882141,620.0
41.811129093170166,635.0
41.814720153808594,655.0
41.83908295631409,682.0
41.84254217147827,713.0
41.8469922542572,745.0
41.8715660572052,779.0
41.87502121925354,811.0
41.879359006881714,837.0
41.905097007751465,855.0
41.908687114715576,863.0
41.912721157073975,862.0
41.9178261756897,851.0
41.938982248306274,833.0
41.94242715835571,809.0
41.94681906700134,780.0
41.97134804725647,748.0
41.97490406036377,719.0
41.979413986206055,690.0
41.983214139938354,665.0
42.00520920753479,643.0
42.00886106491089,625.0
42.01327705383301,611.0
42.07842421531677,601.0
42.08153223991394,594.0
42.0849552154541,590.0
42.08839297294617,589.0
42.091480016708374,591.0
42.09545397758484,594.0
42.099348068237305,600.0
42.103156089782715,607.0
42.13180208206177,615.0
42.13501524925232,624.0
42.13816499710083,632.0
42.14227104187012,638.0
42.146629095077515,644.0
42.167890310287476,648.0
42.17126822471619,652.0
42.17565608024597,655.0
42.200303077697754,655.0
42.20378398895264,653.0
42.20825219154358,650.0
42.23199415206909,646.0
42.23755693435669,640.0
42.2413649559021,636.0
42.24565100669861,631.0
42.270315170288086,625.0
42.27395510673523,621.0
42.27815508842468,617.0
42.302730083465576,612.0
42.30633020401001,609.0
42.31078505516052,606.0
42.33653807640076,603.0
42.34038209915161,603.0
42.34433889389038,602.0
42.3486430644989,600.0
42.3702290058136,601.0
42.37385702133179,602.0
42.377371311187744,602.0
42.38191509246826,602.0
42.40653419494629,602.0
42.41008114814758,603.0
42.41465711593628,603.0
42.43805909156799,603.0
42.44152498245239,603.0
42.44566297531128,603.0
42.4897620677948,603.0
42.49290919303894,603.0
42.496262311935425,604.0
42.50032424926758,603.0
42.50362801551819,604.0
42.55379104614258,603.0
42.55696415901184,603.0
42.56031894683838,604.0
42.56388998031616,604.0
42.567007064819336,605.0
42.57072997093201,604.0
42.57443809509277,603.0
42.61491417884827,604.0
42.61790323257446,604.0
42.62115001678467,607.0
42.62431526184082,613.0
42.627472162246704,624.0
42.63068699836731,640.0
42.650758266448975,663.0
42.65385127067566,689.0
42.657140016555786,720.0
42.708805084228516,752.0
42.71201419830322,784.0
42.71524214744568,814.0
42.718348026275635,839.0
42.721596240997314,856.0
42.72540497779846,863.0
42.76987600326538,862.0
42.77308487892151,852.0
42.77640128135681,834.0
42.7802312374115,810.0
42.784335136413574,781.0
42.787973165512085,752.0
42.79196810722351,721.0
42.79633903503418,692.0
42.8017201423645,667.0
42.83035206794739,645.0
42.835408210754395,627.0
42.83903908729553,613.0
42.862940311431885,604.0
42.86642003059387,596.0
42.87045907974243,592.0
42.87505507469177,590.0
42.89651918411255,591.0
42.9000461101532,595.0
42.904417991638184,599.0
42.929293155670166,604.0
42.93266820907593,611.0
42.93859004974365,619.0
42.961575984954834,625.0
42.96497893333435,633.0
42.969685077667236,640.0
42.994245290756226,644.0
42.99768400192261,647.0
43.00176119804382,651.0
43.00611400604248,652.0
43.027889251708984,652.0
43.031530141830444,650.0
43.036017179489136,647.0
43.059377908706665,641.0
43.062824010849,637.0
43.06656789779663,633.0
43.116042137145996,628.0
43.11923313140869,624.0
43.122684955596924,620.0
43.125975131988525,615.0
43.12922716140747,611.0
43.1324942111969,608.0
43.15510606765747,605.0
43.15917205810547,602.0
43.163719177246094,600.0
43.185352087020874,600.0
43.18887710571289,599.0
43.192814111709595,599.0
43.19817399978638,599.0
43.218958139419556,597.0
43.22257208824158,597.0
43.2269561290741,596.0
43.25086426734924,597.0
43.25418210029602,598.0
43.25784516334534,599.0
43.26263189315796,599.0
43.27394104003906,598.0
43.27870512008667,596.0
43.30527210235596,597.0
43.308871269226074,596.0
43.31422519683838,595.0
43.337043046951294,597.0
43.34048891067505,599.0
43.34435319900513,600.0
43.370214223861694,602.0
43.37375998497009,603.0
43.37820911407471,604.0
43.40302014350891,602.0
43.406440019607544,604.0
43.410489082336426,606.0
43.414971113204956,611.0
43.42390298843384,624.0
43.42843222618103,641.0
43.454538106918335,666.0
43.458054304122925,693.0
43.46336102485657,724.0
43.4927191734314,756.0
43.49611806869507,787.0
43.50028419494629,817.0
43.50472712516785,840.0
43.52656006813049,858.0
43.53019714355469,865.0
43.5347101688385,863.0
43.558526039123535,852.0
43.56509518623352,835.0
43.57083606719971,810.0
43.596599102020264,781.0
43.60002899169922,750.0
43.603965044021606,720.0
43.609286308288574,689.0
43.63049912452698,662.0
43.633995056152344,639.0
43.63803815841675,621.0
43.64234018325806,605.0
43.66349792480469,594.0
43.666640281677246,589.0
43.67107820510864,585.0
43.71601629257202,585.0
43.719197034835815,588.0
43.72167706489563,593.0
43.72493600845337,599.0
43.82892322540283,607.0
43.82913827896118,616.0
43.829270124435425,625.0
43.82939696311951,634.0
43.829533100128174,642.0
43.82968616485596,647.0
43.831844091415405,652.0
43.83547019958496,655.0
43.83892107009888,657.0
43.8420889377594,657.0
43.845784187316895,656.0
43.84950304031372,654.0
43.853339195251465,649.0
43.88865113258362,644.0
43.89167308807373,640.0
43.895066261291504,635.0
43.89850330352783,630.0
43.902101039886475,625.0
43.92167401313782,621.0
43.92497205734253,617.0
43.92972111701965,614.0
43.95511507987976,611.0
43.95820999145508,608.0
43.961589097976685,606.0
43.965270042419434,605.0
43.9893000125885,603.0
43.992507219314575,602.0
43.99693512916565,601.0
44.021594285964966,601.0
44.02502417564392,602.0
44.02924609184265,604.0
44.082151889801025,604.0
44.08535599708557,604.0
44.0887770652771,605.0
44.09179329872131,605.0
44.09538006782532,606.0
44.0985631942749,606.0
44.10230302810669,605.0
44.142075300216675,606.0
44.145644187927246,605.0
44.19111394882202,604.0
44.194167137145996,605.0
44.19726204872131,607.0
44.200531005859375,609.0
44.2040011882782,618.0
44.20750427246094,631.0
44.21181917190552,650.0
44.21555995941162,674.0
44.21937608718872,703.0
44.2549409866333,733.0
44.28460121154785,767.0
44.2881920337677,800.0
44.29139709472656,830.0
44.29505729675293,852.0
44.29882311820984,866.0
44.30275201797485,871.0
44.30644416809082,867.0
44.31041407585144,854.0
44.31402325630188,834.0
44.31884813308716,808.0
44.3377730846405,779.0
44.34127616882324,749.0
44.34676003456116,719.0
44.36943221092224,689.0
44.37291502952576,664.0
44.37656497955322,642.0
44.40292811393738,624.0
44.406461000442505,610.0
44.41123604774475,600.0
44.4366021156311,592.0
44.440057039260864,589.0
44.44380712509155,589.0
44.448896169662476,591.0
44.46644401550293,594.0
44.470237016677856,599.0
44.473824977874756,605.0
44.4850869178772,613.0
44.489986181259155,623.0
44.51654028892517,632.0
44.52000713348389,640.0
44.52442717552185,647.0
44.52824306488037,652.0
44.55885601043701,655.0
44.56213021278381,656.0
44.567461252212524,656.0
44.59080123901367,656.0
44.59400916099548,654.0
44.59902596473694,651.0
44.624184131622314,647.0
44.62750005722046,641.0
44.63198804855347,635.0
44.65670704841614,629.0
44.66048789024353,624.0
44.664557218551636,620.0
44.668814182281494,615.0
44.67833495140076,612.0
44.681968212127686,609.0
44.689900159835815,607.0
44.71922993659973,604.0
44.72262406349182,603.0
44.727129220962524,603.0
44.7516770362854,601.0
44.755232095718384,603.0
44.75936508178711,604.0
44.763883113861084,603.0
44.78447222709656,604.0
44.787785053253174,603.0
44.79170107841492,603.0
44.818066120147705,604.0
44.82142996788025,604.0
44.826332330703735,605.0
44.84949707984924,605.0
44.85299205780029,607.0
44.85658502578735,612.0
44.881969928741455,621.0
44.885704040527344,636.0
44.88948202133179,658.0
44.90581822395325,684.0
44.90921902656555,715.0
44.913069009780884,748.0
44.96212720870972,782.0
44.96542811393738,817.0
44.96890330314636,846.0
44.972344160079956,869.0
44.975632190704346,882.0
44.978976011276245,884.0
45.00018620491028,877.0
45.0038640499115,862.0
45.00818109512329,840.0
45.032670974731445,812.0
45.03635001182556,782.0
45.04135513305664,751.0
45.065582036972046,721.0
45.06910586357117,696.0
45.07349514961243,673.0
45.10355615615845,652.0
45.10791301727295,636.0
45.11159300804138,623.0
45.11508107185364,612.0
45.11946105957031,605.0
45.14013314247131,601.0
45.14398527145386,600.0
45.147587060928345,601.0
45.15184211730957,604.0
45.15697622299194,609.0
45.185227155685425,615.0
45.18897008895874,623.0
45.19267010688782,631.0
45.21783113479614,639.0
45.22195100784302,646.0
45.22662019729614,653.0
45.231043100357056,657.0
45.25963807106018,659.0
45.30601906776428,660.0
45.30924320220947,659.0
45.31250524520874,657.0
45.31584811210632,653.0
45.31922197341919,650.0
45.323168992996216,644.0
45.32702326774597,639.0
45.33099389076233,632.0
45.382291078567505,627.0
45.385385036468506,623.0
45.38858389854431,619.0
45.391868114471436,615.0
45.39553999900818,611.0
45.398829221725464,608.0
45.402329206466675,604.0
45.4447340965271,602.0
45.44797897338867,601.0
45.451953172683716,600.0
45.455629110336304,601.0
45.49731922149658,602.0
45.50039720535278,603.0
45.50391507148743,604.0
45.507179975509644,604.0
45.51071906089783,606.0
45.51444911956787,607.0
45.51828408241272,608.0
45.522067070007324,607.0
45.52784729003906,606.0
45.53251504898071,608.0
45.56270694732666,611.0
45.562918186187744,618.0
45.56748700141907,631.0
45.59160399436951,649.0
45.59531903266907,674.0
45.599096059799194,704.0
45.602445125579834,739.0
45.62525010108948,777.0
45.62885093688965,813.0
45.63327693939209,844.0
45.6577672958374,870.0
45.661447286605835,886.0
45.666311264038086,893.0
45.690471172332764,888.0
45.693800926208496,875.0
45.69827604293823,855.0
45.72461414337158,830.0
45.7452232837677,800.0
45.74886703491211,770.0
45.75284004211426,739.0
45.75675702095032,712.0
45.76113200187683,689.0
45.776395082473755,668.0
45.779860973358154,652.0
45.784488916397095,639.0
45.8159019947052,628.0
45.81933903694153,621.0
45.822696924209595,617.0
45.827351093292236,614.0
45.851694107055664,611.0
45.85531425476074,611.0
45.859716176986694,611.0
45.884156227111816,612.0
45.887691020965576,617.0
45.89176821708679,622.0
45.89542102813721,627.0
45.921839237213135,634.0
45.92499113082886,640.0
45.92869305610657,645.0
45.956679344177246,648.0
45.96017622947693,650.0
45.964341163635254,651.0
45.96888303756714,651.0
45.99029016494751,649.0
45.993643045425415,645.0
45.99776315689087,642.0
46.00195002555847,639.0
46.02379107475281,636.0
46.027262926101685,631.0
46.03242325782776,628.0
46.056889057159424,624.0
46.060134172439575,620.0
46.06466722488403,614.0
46.089009284973145,611.0
46.09249997138977,609.0
46.09780812263489,608.0
46.12171912193298,606.0
46.125083208084106,605.0
46.128273248672485,605.0
46.15517997741699,604.0
46.15848922729492,602.0
46.163326025009155,601.0
46.18941521644592,601.0
46.192914962768555,602.0
46.19666504859924,603.0
46.201141119003296,604.0
46.22266912460327,604.0
46.226102113723755,606.0
46.22975206375122,606.0
46.2344491481781,606.0
46.25642108917236,607.0
46.26009011268616,607.0
46.26450300216675,607.0
46.27350926399231,608.0
46.302757263183594,611.0
46.30624723434448,617.0
46.31044912338257,629.0
46.335299015045166,647.0
46.338919162750244,671.0
46.34285807609558,702.0
46.34726810455322,737.0
46.385441064834595,775.0
46.3890221118927,814.0
46.39283609390259,847.0
46.39638018608093,872.0
46.40043592453003,888.0
46.40341401100159,894.0
46.40792512893677,890.0
46.46599292755127,878.0
46.469250202178955,856.0
46.472980976104736,830.0
46.47690010070801,801.0
46.48076105117798,771.0
46.48450303077698,742.0
46.51838421821594,716.0
46.52175521850586,692.0
46.52499508857727,673.0
46.5282940864563,658.0
46.5317759513855,647.0
46.554052114486694,637.0
46.558002948760986,630.0
46.56304407119751,624.0
46.5836501121521,619.0
46.5888671875,617.0
46.59299421310425,616.0
46.598276138305664,616.0
46.61900806427002,618.0
46.620742321014404,623.0
46.624351978302,630.0
46.65072011947632,637.0
46.65473413467407,646.0
46.65902304649353,654.0
46.663923025131226,661.0
46.68499708175659,668.0
46.68890714645386,673.0
46.69398498535156,677.0
46.74333214759827,680.0
46.74688911437988,681.0
46.75053310394287,679.0
46.754191160202026,676.0
46.757806062698364,672.0
46.762127161026,666.0
46.78149724006653,660.0
46.78509998321533,654.0
46.789645195007324,647.0
46.81409811973572,641.0
46.817880153656006,635.0
46.821659088134766,630.0
46.826298236846924,624.0
46.847809076309204,620.0
46.85143709182739,617.0
46.855884075164795,615.0
46.880632162094116,612.0
46.883875131607056,611.0
46.88833713531494,611.0
46.9131920337677,610.0
46.91633415222168,611.0
46.919883012771606,611.0
46.924174070358276,611.0
46.94560790061951,613.0
46.94867920875549,615.0
46.95324110984802,615.0
46.97937607765198,616.0
46.98248219490051,617.0
46.98761701583862,619.0
47.05530405044556,618.0
47.05899405479431,617.0
47.06270122528076,616.0
47.06625413894653,615.0
47.070255279541016,614.0
47.07388710975647,615.0
47.07762408256531,618.0
47.08148813247681,624.0
47.08511018753052,636.0
47.08949518203735,654.0
47.10906219482422,680.0
47.11305904388428,714.0
47.11726999282837,753.0
47.1408371925354,793.0
47.14416313171387,832.0
47.14846205711365,865.0
47.17416501045227,889.0
47.17762517929077,904.0
47.18195915222168,907.0
47.20664024353027,899.0
47.21002912521362,885.0
47.213557958602905,863.0
47.21799921989441,836.0
47.24808120727539,806.0
47.2514009475708,778.0
47.25496029853821,750.0
47.25856614112854,726.0
47.26290512084961,704.0
47.285309076309204,686.0
47.28889012336731,671.0
47.293259143829346,659.0
47.3396360874176,650.0
47.34294605255127,642.0
47.34641623497009,635.0
47.35004496574402,628.0
47.35453414916992,624.0
47.37661123275757,623.0
47.380372047424316,623.0
47.38407802581787,626.0
47.388575077056885,628.0
47.41027092933655,632.0
47.41382813453674,637.0
47.41815495491028,643.0
47.44209408760071,647.0
47.44566106796265,651.0
47.4526641368866,656.0
47.456358194351196,658.0
47.46058225631714,658.0
47.4854941368103,657.0
47.4888801574707,656.0
47.49329996109009,651.0
47.51804327964783,647.0
47.52140998840332,643.0
47.52574419975281,638.0
47.54950499534607,633.0
47.55302405357361,629.0
47.55828619003296,624.0
47.583847999572754,620.0
47.58743190765381,617.0
47.59117794036865,616.0
47.59555006027222,613.0
47.64175796508789,612.0
47.668856143951416,612.0
47.6724112033844,612.0
47.67604207992554,612.0
47.67956614494324,611.0
47.683221101760864,611.0
47.686875104904175,610.0
47.69044518470764,611.0
47.6939582824707,612.0
47.698354959487915,611.0
47.71660804748535,611.0
47.72007393836975,612.0
47.72438907623291,611.0
47.74808311462402,611.0
47.75188708305359,612.0
47.75889992713928,613.0
47.76344704627991,613.0
47.790141105651855,615.0
47.793814182281494,616.0
47.798182249069214,617.0
47.82260298728943,617.0
47.82613205909729,618.0
47.829665184020996,618.0
47.85455894470215,619.0
47.857866048812866,617.0
47.86119723320007,615.0
47.887638092041016,614.0
47.89132118225098,613.0
47.89502215385437,617.0
47.89926600456238,625.0
47.941734313964844,638.0
47.94529318809509,658.0
47.949095249176025,685.0
47.952452182769775,719.0
47.95576500892639,757.0
47.95904731750488,794.0
47.9788920879364,830.0
47.982577323913574,857.0
47.98696708679199,877.0
48.01148223876953,886.0
48.01515007019043,884.0
48.01952314376831,872.0
48.044188261032104,851.0
48.0477352142334,826.0
48.05137610435486,796.0
48.0764741897583,766.0
48.08011603355408,736.0
48.0844669342041,709.0
48.109190225601196,686.0
48.11290717124939,668.0
48.116528272628784,653.0
48.120136976242065,642.0
48.124558210372925,632.0
48.14420509338379,628.0
48.1476731300354,623.0
48.152008056640625,620.0
48.176483154296875,619.0
48.180094957351685,618.0
48.18452310562134,618.0
48.24443817138672,619.0
48.24775195121765,621.0
48.25152015686035,623.0
48.255141258239746,627.0
48.25884699821472,631.0
48.262346029281616,635.0
48.265620946884155,638.0
48.26888608932495,640.0
48.30969500541687,643.0
48.31294012069702,643.0
48.31628108024597,643.0
48.319571018218994,643.0
48.3232741355896,641.0
48.32702016830444,639.0
48.36599111557007,636.0
48.36923313140869,633.0
48.37268090248108,630.0
48.375970125198364,626.0
48.38005518913269,624.0
48.402714252471924,621.0
48.40664505958557,617.0
48.41083312034607,615.0
48.415290117263794,612.0
48.4389922618866,610.0
48.44261717796326,608.0
48.447153091430664,609.0
48.470932960510254,609.0
48.48520231246948,608.0
48.488922119140625,608.0
48.49245309829712,608.0
48.49682402610779,608.0
48.54036808013916,608.0
48.54405093193054,608.0
48.5477659702301,608.0
48.551483154296875,609.0
48.55502223968506,610.0
48.55946922302246,610.0
48.57695412635803,611.0
48.580347299575806,613.0
48.58369207382202,613.0
48.62963509559631,612.0
48.63295316696167,612.0
48.63629102706909,611.0
48.639676332473755,611.0
48.643009185791016,611.0
48.68601608276367,611.0
48.6903932094574,611.0
48.69412302970886,611.0
48.6977961063385,611.0
48.701282024383545,609.0
48.70587706565857,608.0
48.72405409812927,607.0
48.72772002220154,606.0
48.732163190841675,605.0
48.75697612762451,604.0
48.76039719581604,604.0
48.76416730880737,608.0
48.76865911483765,615.0
48.79182314872742,629.0
48.79560708999634,650.0
48.79994511604309,678.0
48.80442810058594,708.0
48.84035921096802,744.0
48.84298920631409,780.0
48.84666919708252,813.0
48.850444078445435,840.0
48.85473823547363,860.0
48.87961292266846,869.0
48.88336420059204,870.0
48.88679814338684,860.0
48.89017128944397,843.0
48.91905999183655,820.0
48.923076152801514,792.0
48.92757201194763,763.0
48.94674515724182,734.0
48.950324058532715,707.0
48.95476722717285,684.0
48.97843313217163,665.0
48.98164510726929,649.0
48.98508906364441,638.0
49.0116331577301,627.0
49.01520609855652,621.0
49.01897716522217,615.0
49.023351192474365,610.0
49.04555106163025,608.0
49.04894709587097,607.0
49.053256034851074,607.0
49.07683706283569,608.0
49.080374002456665,611.0
49.08444905281067,615.0
49.09511613845825,619.0
49.099687337875366,624.0
49.14032006263733,630.0
49.14390826225281,635.0
49.148082971572876,640.0
49.152430057525635,643.0
49.17524194717407,646.0
49.1790132522583,646.0
49.182520151138306,646.0
49.185707092285156,641.0
49.209049224853516,638.0
49.21243500709534,634.0
49.21691703796387,629.0
49.24153709411621,625.0
49.24494409561157,620.0
