2.1457672119140625e-06,532.0
0.1359701156616211,539.0
0.15281200408935547,545.0
0.1572132110595703,549.0
0.18397021293640137,551.0
0.18742918968200684,550.0
0.19178009033203125,546.0
0.2396233081817627,540.0
0.24289321899414062,534.0
0.24630022048950195,526.0
0.24953126907348633,519.0
0.25309109687805176,510.0
0.2575242519378662,504.0
0.2775552272796631,498.0
0.28104710578918457,492.0
0.28533411026000977,487.0
0.31024813652038574,482.0
0.31388425827026367,480.0
0.3182709217071533,476.0
0.3421051502227783,472.0
0.3457043170928955,469.0
0.3585484027862549,467.0
0.3620901107788086,467.0
0.3664572238922119,468.0
0.390239953994751,473.0
0.3938422203063965,484.0
0.397536039352417,499.0
0.4019131660461426,522.0
0.42396116256713867,551.0
0.4276092052459717,587.0
0.4328193664550781,626.0
0.4559011459350586,665.0
0.4593353271484375,702.0
0.46373414993286133,733.0
0.4889540672302246,755.0
0.4925811290740967,767.0
0.49689507484436035,770.0
0.5381350517272949,764.0
0.5627222061157227,752.0
0.5665252208709717,733.0
0.5704491138458252,712.0
0.5740222930908203,688.0
0.5777380466461182,664.0
0.5814471244812012,641.0
0.5852212905883789,618.0
0.5903422832489014,598.0
0.5950992107391357,579.0
0.6214373111724854,562.0
0.6250832080841064,545.0
0.6287672519683838,531.0
0.6331241130828857,517.0
0.6627821922302246,506.0
0.6664741039276123,498.0
0.6702032089233398,491.0
0.674605131149292,487.0
0.6976723670959473,486.0
0.7013282775878906,486.0
0.7057430744171143,489.0
0.7304093837738037,492.0
0.7339992523193359,498.0
0.7383973598480225,504.0
0.7689352035522461,510.0
0.7726571559906006,515.0
0.7762360572814941,518.0
0.780602216720581,520.0
0.802725076675415,520.0
0.8067221641540527,518.0
0.810908317565918,517.0
0.8152711391448975,512.0
0.8440303802490234,508.0
0.8475923538208008,503.0
0.8515641689300537,501.0
0.8548259735107422,497.0
0.8777332305908203,493.0
0.8814053535461426,488.0
0.8858041763305664,486.0
0.9101769924163818,482.0
0.9138932228088379,479.0
0.9182431697845459,476.0
0.9427371025085449,473.0
0.9463772773742676,470.0
0.9507172107696533,468.0
0.9751632213592529,466.0
0.9788782596588135,465.0
0.9833052158355713,464.0
1.0068840980529785,463.0
1.0101912021636963,466.0
1.0134902000427246,471.0
1.0169131755828857,480.0
1.0202093124389648,493.0
1.0442280769348145,513.0
1.047607183456421,540.0
1.0520551204681396,572.0
1.077108383178711,608.0
1.1209862232208252,645.0
1.124338150024414,681.0
1.1278002262115479,711.0
1.1314191818237305,734.0
1.1346251964569092,750.0
1.1379539966583252,756.0
1.2011592388153076,754.0
1.2535862922668457,745.0
1.2568092346191406,730.0
1.260681390762329,711.0
1.2644991874694824,687.0
1.3138091564178467,664.0
1.3168020248413086,639.0
1.3203132152557373,615.0
1.3235692977905273,595.0
1.3267450332641602,575.0
1.3307640552520752,559.0
1.3735401630401611,541.0
1.3766961097717285,524.0
1.3798751831054688,509.0
1.3831961154937744,496.0
1.38676118850708,484.0
1.3900232315063477,475.0
1.3934462070465088,469.0
1.3969981670379639,465.0
1.400609016418457,465.0
1.4044921398162842,467.0
1.4076480865478516,474.0
1.4471781253814697,481.0
1.450721025466919,490.0
1.4545011520385742,500.0
1.503575086593628,508.0
1.5067861080169678,515.0
1.5102531909942627,521.0
1.513329267501831,525.0
1.5169363021850586,527.0
1.5206432342529297,526.0
1.5243730545043945,525.0
1.527921199798584,521.0
1.5696210861206055,518.0
1.5723090171813965,514.0
1.5757801532745361,510.0
1.5792100429534912,504.0
1.5833070278167725,500.0
1.5870521068572998,494.0
1.590778112411499,489.0
1.622007131576538,485.0
1.625718116760254,480.0
1.629136085510254,478.0
1.63295316696167,473.0
1.6370642185211182,471.0
1.6407151222229004,467.0
1.6443283557891846,465.0
1.6475932598114014,465.0
1.6513640880584717,463.0
1.6550719738006592,463.0
1.6588611602783203,463.0
1.6625652313232422,466.0
1.6660711765289307,474.0
1.6696910858154297,488.0
1.6890223026275635,509.0
1.6927151679992676,537.0
1.6971089839935303,572.0
1.7418413162231445,610.0
1.7454102039337158,649.0
1.749157190322876,686.0
1.752697229385376,717.0
1.756702184677124,740.0
1.7602972984313965,755.0
1.7645981311798096,759.0
1.7901732921600342,753.0
1.7938549518585205,739.0
1.7982430458068848,719.0
1.8416361808776855,694.0
1.8453421592712402,668.0
1.849283218383789,640.0
1.853133201599121,612.0
1.856734275817871,587.0
1.8603572845458984,564.0
1.8647501468658447,543.0
1.8856842517852783,526.0
1.8891441822052002,510.0
1.8936712741851807,495.0
1.9103260040283203,482.0
1.9156522750854492,473.0
1.9414241313934326,465.0
1.9451122283935547,460.0
1.9494330883026123,459.0
1.9739410877227783,459.0
1.9772131443023682,463.0
1.9805293083190918,470.0
2.0404651165008545,478.0
2.044140100479126,489.0
2.047800064086914,499.0
2.05151104927063,507.0
2.0551111698150635,514.0
2.0587832927703857,519.0
2.062343120574951,521.0
2.0668699741363525,521.0
2.067047119140625,518.0
2.0844810009002686,515.0
2.0879790782928467,511.0
2.0915210247039795,505.0
2.117812395095825,498.0
2.121422052383423,492.0
2.125786066055298,486.0
2.1501870155334473,479.0
2.1537232398986816,474.0
2.158036947250366,471.0
2.1818361282348633,467.0
2.1857593059539795,464.0
2.18953800201416,464.0
2.198937177658081,463.0
2.2034912109375,463.0
2.2303080558776855,463.0
2.233941078186035,464.0
2.238274097442627,465.0
2.2627570629119873,466.0
2.266369104385376,468.0
2.2700159549713135,468.0
2.2744040489196777,468.0
2.2958242893218994,467.0
2.299365282058716,467.0
2.304058074951172,469.0
2.3413009643554688,474.0
2.34491229057312,484.0
2.3485262393951416,503.0
2.3521511554718018,527.0
2.3574702739715576,558.0
2.365338087081909,593.0
2.369847059249878,629.0
2.4039242267608643,665.0
2.407663106918335,697.0
2.411262273788452,721.0
2.4164421558380127,736.0
2.437685012817383,742.0
2.441242218017578,739.0
2.4455790519714355,729.0
2.4841442108154297,711.0
2.488668203353882,692.0
2.4919862747192383,669.0
2.4952640533447266,644.0
2.4985432624816895,621.0
2.515184164047241,600.0
2.5190939903259277,579.0
2.5234622955322266,562.0
2.528761148452759,546.0
2.5603911876678467,532.0
2.5639841556549072,517.0
2.5677082538604736,503.0
2.57206130027771,491.0
2.59448504447937,480.0
2.5980112552642822,472.0
2.6014211177825928,465.0
2.6416382789611816,462.0
2.645238161087036,460.0
2.6488780975341797,463.0
2.652513027191162,468.0
2.6569342613220215,474.0
2.6790430545806885,480.0
2.6826181411743164,487.0
2.6877992153167725,494.0
2.7116551399230957,499.0
2.715313196182251,505.0
2.719097137451172,509.0
2.724234104156494,511.0
2.745241165161133,512.0
2.7489092350006104,512.0
2.7532761096954346,509.0
2.777705192565918,506.0
2.7812280654907227,503.0
2.7855911254882812,499.0
2.8157451152801514,494.0
2.8193023204803467,489.0
2.8228132724761963,483.0
2.8272321224212646,477.0
2.8489573001861572,472.0
2.852574348449707,467.0
2.8568921089172363,464.0
2.881507158279419,463.0
2.8851382732391357,461.0
2.890287160873413,462.0
2.9392282962799072,462.0
2.9428811073303223,462.0
2.946747303009033,461.0
2.950632333755493,461.0
2.9542860984802246,463.0
2.957914113998413,465.0
2.961412191390991,468.0
2.9657793045043945,475.0
2.985201120376587,489.0
2.9887611865997314,508.0
2.9931581020355225,534.0
2.9979381561279297,565.0
3.0266990661621094,600.0
3.0303471088409424,637.0
3.034900188446045,673.0
3.06019926071167,705.0
3.063906192779541,729.0
3.0682642459869385,745.0
3.0918033123016357,749.0
3.0950961112976074,744.0
3.0983951091766357,732.0
3.1276421546936035,711.0
3.1317241191864014,686.0
3.1353700160980225,657.0
3.1639773845672607,629.0
3.1641411781311035,603.0
3.1676149368286133,577.0
3.171278238296509,552.0
3.1756060123443604,531.0
3.247347354888916,512.0
3.250519037246704,496.0
3.253937244415283,483.0
3.2574870586395264,470.0
3.2609620094299316,461.0
3.2642621994018555,455.0
3.3210020065307617,453.0
3.324284315109253,453.0
3.3274810314178467,456.0
3.330693244934082,460.0
3.3344380855560303,467.0
3.3382341861724854,475.0
3.3822100162506104,484.0
3.3854801654815674,492.0
3.3886730670928955,500.0
3.3920140266418457,505.0
3.3954291343688965,510.0
3.399454355239868,513.0
3.4026050567626953,513.0
3.405808210372925,512.0
3.431453227996826,509.0
3.4350321292877197,504.0
3.438723087310791,499.0
3.4422411918640137,492.0
3.4459493160247803,487.0
3.4495761394500732,481.0
3.4532222747802734,477.0
3.4575581550598145,472.0
3.480269193649292,468.0
3.4838781356811523,466.0
3.4882450103759766,464.0
3.544962167739868,462.0
3.5483572483062744,461.0
3.5520522594451904,460.0
3.556145191192627,462.0
3.5602340698242188,463.0
3.564314126968384,462.0
3.5685031414031982,463.0
3.5734362602233887,463.0
3.5899300575256348,464.0
3.593959331512451,465.0
3.598109245300293,467.0
3.603178024291992,471.0
3.6315572261810303,481.0
3.635118246078491,496.0
3.638820171356201,518.0
3.6432230472564697,548.0
3.665215015411377,585.0
3.66886305809021,627.0
3.673227071762085,669.0
3.6977522373199463,707.0
3.70139217376709,738.0
3.7057483196258545,760.0
3.734196186065674,771.0
3.7380080223083496,771.0
3.7424230575561523,761.0
3.7627482414245605,745.0
3.7663822174072266,721.0
3.7700552940368652,694.0
3.774418354034424,664.0
3.79650616645813,635.0
3.8001091480255127,608.0
3.805293083190918,584.0
3.8392162322998047,561.0
3.842846155166626,542.0
3.8465802669525146,527.0
3.850062131881714,512.0
3.8544790744781494,499.0
3.876479148864746,487.0
3.879977226257324,478.0
3.884350299835205,469.0
3.90895938873291,464.0
3.912633180618286,462.0
3.9170312881469727,462.0
3.94162917137146,466.0
3.9453601837158203,471.0
3.9496419429779053,478.0
3.974168062210083,485.0
3.9776623249053955,492.0
3.9812991619110107,500.0
3.985603094100952,507.0
4.007784366607666,513.0
4.0113630294799805,516.0
4.015772104263306,517.0
4.041545391082764,517.0
4.045143127441406,514.0
4.048803091049194,511.0
4.053166151046753,505.0
4.0752692222595215,499.0
4.078890085220337,492.0
4.084093332290649,485.0
4.144505262374878,478.0
4.147913217544556,473.0
4.151288032531738,468.0
4.154592037200928,463.0
4.157991170883179,460.0
4.161218166351318,457.0
4.165606260299683,456.0
4.183977365493774,455.0
4.188017129898071,455.0
4.192064046859741,456.0
4.1963372230529785,457.0
4.22038722038269,459.0
4.223863124847412,461.0
4.228168249130249,463.0
4.231698274612427,463.0
4.2398841381073,463.0
4.244231224060059,464.0
4.273983001708984,465.0
4.277682304382324,466.0
4.2820143699646,465.0
4.306546211242676,467.0
4.3102500438690186,472.0
4.314829111099243,481.0
4.347547292709351,499.0
4.351365089416504,527.0
4.355027198791504,560.0
4.359408140182495,600.0
4.400572299957275,642.0
4.404147148132324,683.0
4.408010005950928,719.0
4.411540985107422,748.0
4.415126085281372,767.0
4.4195849895477295,773.0
4.4494242668151855,769.0
4.453071117401123,756.0
4.456712245941162,736.0
4.460278034210205,709.0
4.464651107788086,681.0
4.48528528213501,652.0
4.48895001411438,623.0
4.493330240249634,598.0
4.5177061557769775,574.0
4.521296262741089,553.0
4.525618314743042,534.0
4.552674055099487,516.0
4.556593179702759,503.0
4.560258150100708,490.0
4.564825057983398,478.0
4.591461181640625,470.0
4.5951032638549805,464.0
4.59943699836731,461.0
4.62407112121582,460.0
4.627650022506714,463.0
4.631746053695679,468.0
4.63525915145874,473.0
4.657772064208984,480.0
4.66148829460144,487.0
4.665833950042725,494.0
4.690356254577637,498.0
4.693964004516602,503.0
4.698368072509766,507.0
4.736853122711182,508.0
4.740371227264404,510.0
4.744266033172607,508.0
4.748264312744141,504.0
4.7520833015441895,499.0
4.758985280990601,495.0
4.764350175857544,488.0
4.79034423828125,482.0
4.793941020965576,477.0
4.798269271850586,472.0
4.822806119918823,467.0
4.826508045196533,464.0
4.83024001121521,460.0
4.83468222618103,458.0
4.8614821434021,457.0
4.865206003189087,458.0
4.868948936462402,457.0
4.873059034347534,457.0
4.877348184585571,456.0
4.905255317687988,456.0
4.908943176269531,457.0
4.913282155990601,458.0
4.937707185745239,458.0
4.941285133361816,460.0
4.944974184036255,461.0
4.970242023468018,461.0
4.973875284194946,463.0
4.978245258331299,466.0
5.001821279525757,469.0
5.005483150482178,476.0
5.010547161102295,487.0
5.064211368560791,506.0
5.067927122116089,534.0
5.071768045425415,568.0
5.075487375259399,608.0
5.07934308052063,649.0
5.082909345626831,690.0
5.086601257324219,725.0
5.091033220291138,752.0
5.109243154525757,770.0
5.112722158432007,777.0
5.117276191711426,774.0
5.141513347625732,759.0
5.145136117935181,738.0
5.1497251987457275,712.0
5.153010129928589,684.0
5.199628114700317,656.0
5.204493045806885,627.0
5.207811117172241,601.0
5.211132287979126,576.0
5.214623212814331,555.0
5.218460321426392,534.0
5.2686309814453125,517.0
5.271806955337524,503.0
5.275000095367432,490.0
5.278321266174316,479.0
5.281631231307983,471.0
5.284862279891968,464.0
5.288095235824585,461.0
5.383723974227905,459.0
5.386795997619629,460.0
5.390029191970825,463.0
5.393330335617065,468.0
5.396972179412842,474.0
5.400755167007446,482.0
5.40440821647644,489.0
5.408212184906006,496.0
5.44985818862915,501.0
5.453019142150879,505.0
5.456232309341431,507.0
5.459620237350464,508.0
5.462895154953003,507.0
5.466801166534424,505.0
5.4707231521606445,500.0
5.474505186080933,497.0
5.500295162200928,491.0
5.504003047943115,486.0
5.50772500038147,479.0
5.511760234832764,474.0
5.515405178070068,469.0
5.519013166427612,465.0
5.5225841999053955,462.0
5.5268402099609375,459.0
5.546568155288696,456.0
5.550196170806885,455.0
5.554561138153076,452.0
5.5799641609191895,451.0
5.583385229110718,451.0
5.587724208831787,451.0
5.636821031570435,450.0
5.640434265136719,452.0
5.644201278686523,453.0
5.647925138473511,455.0
5.651578187942505,456.0
5.656634092330933,458.0
5.660569190979004,459.0
5.686835289001465,460.0
5.6902031898498535,462.0
5.690334320068359,464.0
5.6945960521698,469.0
5.719149112701416,480.0
5.72272515296936,497.0
5.727096080780029,521.0
5.751529216766357,552.0
5.755213022232056,591.0
5.758814334869385,632.0
5.762730121612549,674.0
5.785397052764893,711.0
5.7889909744262695,741.0
5.793385982513428,760.0
5.8177289962768555,768.0
5.821386098861694,765.0
5.825821161270142,753.0
5.8502891063690186,734.0
5.853950262069702,707.0
5.858298063278198,678.0
5.88270115852356,646.0
5.886936187744141,615.0
5.892137289047241,587.0
5.937631368637085,560.0
5.9377992153167725,539.0
5.941236257553101,519.0
5.944892168045044,503.0
5.948516130447388,489.0
5.952898025512695,476.0
5.9842753410339355,466.0
5.987892389297485,459.0
5.991555213928223,453.0
5.995096206665039,450.0
5.999497175216675,451.0
6.019374132156372,454.0
6.022647142410278,458.0
6.025833368301392,465.0
6.052800178527832,472.0
6.056777238845825,480.0
6.0609681606292725,488.0
6.065410137176514,495.0
6.088956117630005,500.0
6.092688083648682,505.0
6.097891092300415,508.0
6.116523027420044,509.0
6.120162010192871,508.0
6.125328302383423,506.0
6.148952007293701,501.0
6.152507305145264,496.0
6.156880140304565,489.0
6.190469264984131,482.0
6.194144010543823,478.0
6.197757244110107,472.0
6.201289176940918,467.0
6.206278085708618,462.0
6.238097190856934,459.0
6.241538047790527,457.0
6.245216131210327,455.0
6.24961519241333,455.0
6.266453981399536,455.0
6.2700090408325195,454.0
6.274878263473511,454.0
6.2999982833862305,453.0
6.321446180343628,454.0
6.325247049331665,455.0
6.328976154327393,455.0
6.332549095153809,455.0
6.336945295333862,455.0
6.3564772605896,454.0
6.360148191452026,454.0
6.36453914642334,452.0
6.394184350967407,452.0
6.397616147994995,453.0
6.401276111602783,459.0
6.405632972717285,471.0
6.427755117416382,489.0
6.431380271911621,516.0
6.436581134796143,550.0
6.460283279418945,591.0
6.463964223861694,635.0
6.469172954559326,675.0
6.497728109359741,711.0
6.501422166824341,738.0
6.505075216293335,755.0
6.509514093399048,761.0
6.540250062942505,757.0
6.543954133987427,743.0
6.547709226608276,723.0
6.551276206970215,697.0
6.555673122406006,667.0
6.575273275375366,636.0
6.578904151916504,607.0
6.582256078720093,579.0
6.607737064361572,554.0
6.611421346664429,532.0
6.615786075592041,513.0
6.640237092971802,496.0
6.643916130065918,483.0
6.649147272109985,471.0
6.672722339630127,462.0
6.67645001411438,456.0
6.680843114852905,453.0
6.705219030380249,453.0
6.708992004394531,456.0
6.712595224380493,462.0
6.716965198516846,470.0
6.73907208442688,479.0
6.742980241775513,487.0
6.747649192810059,496.0
6.752114295959473,502.0
6.778975248336792,508.0
6.78266716003418,512.0
6.786768198013306,514.0
6.790082216262817,515.0
6.840415954589844,514.0
6.844003200531006,511.0
6.847652196884155,505.0
6.851309061050415,499.0
6.854893207550049,492.0
6.859279155731201,486.0
6.877752065658569,480.0
6.881416320800781,475.0
6.8857362270355225,471.0
6.90895414352417,467.0
6.912660360336304,464.0
6.917029142379761,462.0
6.961742162704468,460.0
6.965400218963623,459.0
6.969153165817261,460.0
6.972907066345215,460.0
6.9764721393585205,460.0
6.9808430671691895,460.0
7.008959054946899,461.0
7.012664079666138,462.0
7.016287326812744,462.0
7.020625114440918,462.0
7.042795181274414,461.0
7.046380043029785,462.0
7.050037145614624,462.0
7.054429292678833,464.0
7.076508283615112,471.0
7.080199241638184,482.0
7.084606170654297,501.0
7.13791823387146,525.0
7.141516208648682,558.0
7.145161390304565,596.0
7.148822069168091,636.0
7.152405023574829,675.0
7.158078193664551,710.0
7.175232172012329,736.0
7.179247140884399,753.0
7.183335304260254,759.0
7.186973333358765,755.0
7.191370964050293,740.0
7.216706037521362,719.0
7.220261096954346,693.0
7.224640130996704,664.0
7.249115228652954,634.0
7.252636194229126,604.0
7.2569801807403564,576.0
7.281492233276367,550.0
7.285167217254639,527.0
7.289600133895874,507.0
7.316522121429443,491.0
7.32016921043396,478.0
7.32381534576416,467.0
7.328254222869873,459.0
7.35041618347168,452.0
7.354006052017212,449.0
7.358448266983032,450.0
7.367892265319824,454.0
7.372653007507324,459.0
7.398993253707886,467.0
7.4022791385650635,475.0
7.405984163284302,486.0
7.409341335296631,495.0
7.437934160232544,502.0
7.441679239273071,508.0
7.44618821144104,512.0
7.471503257751465,513.0
7.475149154663086,513.0
7.478822231292725,511.0
7.483215093612671,507.0
7.5044121742248535,503.0
7.508310079574585,498.0
7.521557092666626,491.0
7.526101112365723,485.0
7.552715063095093,480.0
7.556248188018799,475.0
7.5606913566589355,470.0
7.565088987350464,464.0
7.601685047149658,460.0
7.606043100357056,457.0
7.609586238861084,456.0
7.6133623123168945,455.0
7.617189168930054,455.0
7.625304222106934,455.0
7.62988018989563,454.0
7.65650200843811,455.0
7.660149097442627,455.0
7.664477348327637,455.0
7.68900203704834,455.0
7.692644119262695,455.0
7.697019100189209,456.0
7.737004041671753,456.0
7.740434169769287,457.0
7.744054079055786,460.0
7.747613191604614,467.0
7.752037286758423,479.0
7.772752285003662,496.0
7.776433229446411,521.0
7.7808802127838135,554.0
7.805319309234619,593.0
7.809053182601929,634.0
7.812321186065674,676.0
7.837774038314819,713.0
7.841445207595825,745.0
7.845213174819946,767.0
7.848889112472534,779.0
7.853216171264648,777.0
7.8752782344818115,767.0
7.878974199295044,749.0
7.883347272872925,723.0
7.907936096191406,692.0
7.911451101303101,660.0
7.914762020111084,627.0
7.940225124359131,597.0
7.943918228149414,569.0
7.948278188705444,545.0
7.972755193710327,524.0
7.97641921043396,504.0
7.98079514503479,489.0
7.994155168533325,476.0
7.999423027038574,467.0
8.036699295043945,461.0
8.040378093719482,455.0
8.044103145599365,455.0
8.047882080078125,456.0
8.051434993743896,462.0
8.055887222290039,468.0
8.073975086212158,478.0
8.077487230300903,487.0
8.081882238388062,497.0
8.106467247009277,507.0
8.110465049743652,515.0
8.113775253295898,521.0
8.139177322387695,525.0
8.143014192581177,527.0
8.147422313690186,527.0
8.155348300933838,524.0
8.160628318786621,518.0
8.186623096466064,511.0
8.190957069396973,503.0
8.195105075836182,494.0
8.286076307296753,486.0
8.289674043655396,480.0
8.334771156311035,475.0
8.338061094284058,470.0
8.341895341873169,467.0
8.345550060272217,464.0
8.349187135696411,463.0
8.353235244750977,460.0
8.35685133934021,458.0
8.360568046569824,457.0
8.364319324493408,455.0
8.368014097213745,454.0
8.37179708480835,452.0
8.375506162643433,452.0
8.379269123077393,452.0
8.383041143417358,452.0
8.386649131774902,455.0
8.390234231948853,458.0
8.39518117904663,466.0
8.412751197814941,480.0
8.416482210159302,499.0
8.42089319229126,527.0
8.445234298706055,561.0
8.448902130126953,601.0
8.452561140060425,644.0
8.456958293914795,686.0
8.479024171829224,723.0
8.482687950134277,752.0
8.486299276351929,771.0
8.490662097930908,779.0
8.51282525062561,776.0
8.516439199447632,764.0
8.52083420753479,744.0
8.545339107513428,718.0
8.548948287963867,688.0
8.553393125534058,656.0
8.577759265899658,625.0
8.581416368484497,595.0
8.585860252380371,566.0
8.644229173660278,540.0
8.647942304611206,517.0
8.651718139648438,499.0
8.65522813796997,484.0
8.658819198608398,471.0
8.662363290786743,461.0
8.665926218032837,455.0
8.669450044631958,450.0
8.673854351043701,447.0
8.69399905204773,448.0
8.69766616821289,453.0
8.702090978622437,459.0
8.726715087890625,467.0
8.730545282363892,476.0
8.733843326568604,486.0
8.75900912284851,495.0
8.762647151947021,502.0
8.76704716682434,509.0
8.791546106338501,512.0
8.795208215713501,513.0
8.799544095993042,512.0
8.824002027511597,510.0
8.827699184417725,507.0
8.832930088043213,504.0
8.83625602722168,497.0
8.858420372009277,493.0
8.862734079360962,487.0
8.883976221084595,483.0
8.887669086456299,478.0
8.891309022903442,473.0
8.895780086517334,468.0
8.935914039611816,466.0
8.939702033996582,463.0
8.952755212783813,462.0
8.956515073776245,462.0
8.960224151611328,460.0
8.963811159133911,460.0
8.968224048614502,459.0
8.987718105316162,459.0
8.99140214920044,458.0
8.996625185012817,457.0
9.020233392715454,457.0
9.023910284042358,457.0
9.02828311920166,460.0
9.055320024490356,465.0
9.058914184570312,475.0
9.062633991241455,492.0
9.066981077194214,519.0
9.088995218276978,553.0
9.092663049697876,595.0
9.097032308578491,641.0
9.121532201766968,687.0
9.125168085098267,731.0
9.128799200057983,766.0
9.133154153823853,791.0
9.15558910369873,807.0
9.159281253814697,809.0
9.163714170455933,801.0
9.189001321792603,782.0
9.192671298980713,756.0
9.197055101394653,727.0
9.236845016479492,694.0
9.240418195724487,662.0
9.243860960006714,629.0
9.247275114059448,599.0
9.250869035720825,571.0
9.260631084442139,545.0
9.264088153839111,524.0
9.292917966842651,505.0
9.296440124511719,490.0
9.300798177719116,479.0
9.325261116027832,471.0
9.329008102416992,466.0
9.332580089569092,464.0
9.337757349014282,464.0
9.362987041473389,467.0
9.366429328918457,473.0
9.370033264160156,481.0
9.37445616722107,488.0
9.39649510383606,498.0
9.400230169296265,507.0
9.404547214508057,515.0
9.429916143417358,520.0
9.433391094207764,524.0
9.437746286392212,526.0
9.463999032974243,528.0
9.467661142349243,529.0
9.471297025680542,529.0
9.476514101028442,527.0
9.498193264007568,525.0
9.502568244934082,521.0
9.53640604019165,517.0
9.540035247802734,513.0
9.544084310531616,507.0
9.547874212265015,500.0
9.551205158233643,492.0
9.567735195159912,483.0
9.571426153182983,476.0
9.57580018043518,469.0
9.600268125534058,461.0
9.603934288024902,457.0
9.608336210250854,454.0
9.632744312286377,453.0
9.636401176452637,455.0
9.640053987503052,459.0
9.644387245178223,465.0
9.66793704032898,475.0
9.671587228775024,487.0
9.676005125045776,505.0
9.700246095657349,527.0
9.703917026519775,556.0
9.70841121673584,590.0
9.73285722732544,629.0
9.736423254013062,670.0
9.740090131759644,710.0
9.744485139846802,746.0
9.773967266082764,775.0
9.777695178985596,794.0
9.781320333480835,804.0
9.785670280456543,804.0
9.840496301651001,793.0
9.844194173812866,774.0
9.847966194152832,748.0
9.851745128631592,718.0
9.856983184814453,684.0
9.860221147537231,650.0
9.863775253295898,615.0
9.87897801399231,580.0
9.882694244384766,547.0
9.887089252471924,518.0
9.911480188369751,493.0
9.915144205093384,472.0
9.91955304145813,457.0
9.944010972976685,450.0
9.947651147842407,448.0
9.95131802558899,452.0
9.955698251724243,462.0
9.97775936126709,475.0
9.981385946273804,490.0
9.985825061798096,505.0
10.010232210159302,520.0
10.013893127441406,531.0
10.01750135421753,537.0
10.021923065185547,538.0
10.050273180007935,536.0
10.053955078125,530.0
10.058341264724731,522.0
10.082884073257446,512.0
10.086397171020508,503.0
10.090030193328857,494.0
10.094398260116577,487.0
10.138398170471191,482.0
10.161545991897583,481.0
10.164844036102295,483.0
10.168589115142822,486.0
10.172213077545166,491.0
10.17597222328186,496.0
10.18398904800415,499.0
10.187681198120117,501.0
10.191288232803345,500.0
10.196498155593872,496.0
10.217909097671509,491.0
10.221453189849854,482.0
10.225858211517334,474.0
10.250386238098145,464.0
10.253947257995605,455.0
10.258312225341797,446.0
10.285251140594482,439.0
10.288975238800049,435.0
10.292601108551025,435.0
10.296953201293945,440.0
10.319167137145996,452.0
10.322785139083862,471.0
10.327957153320312,496.0
10.35151720046997,527.0
10.355180025100708,561.0
10.359864234924316,598.0
10.384042024612427,633.0
10.38770318031311,666.0
10.387898206710815,691.0
10.392088174819946,707.0
10.436776161193848,715.0
10.440442085266113,713.0
10.44409704208374,704.0
10.447638034820557,689.0
10.45209813117981,671.0
10.47200322151184,649.0
10.475419282913208,628.0
10.478728294372559,607.0
10.481967210769653,587.0
10.50787615776062,568.0
10.511519193649292,550.0
10.515902280807495,533.0
10.540316104888916,519.0
10.543923377990723,506.0
10.54835033416748,495.0
10.57185411453247,486.0
10.575103044509888,480.0
10.579642057418823,476.0
10.590221166610718,474.0
10.593926191329956,471.0
10.598302364349365,471.0
10.622782945632935,472.0
10.626418352127075,472.0
10.630810260772705,475.0
10.655277013778687,479.0
10.658923149108887,483.0
10.66328501701355,487.0
10.696715116500854,493.0
10.700383186340332,498.0
10.704444169998169,504.0
10.709075212478638,510.0
10.741044282913208,515.0
10.74576711654663,519.0
10.77417802810669,522.0
10.774354219436646,524.0
10.774525165557861,524.0
10.778015375137329,523.0
10.78131103515625,518.0
10.784694194793701,511.0
10.802731990814209,503.0
10.806447267532349,495.0
10.810805082321167,484.0
10.83529806137085,473.0
10.839025259017944,462.0
10.843387126922607,451.0
10.867790222167969,441.0
10.871484279632568,432.0
10.875876188278198,423.0
10.90024709701538,416.0
10.903929233551025,411.0
10.908254384994507,407.0
10.934077262878418,403.0
10.937672138214111,401.0
10.941311120986938,401.0
10.946215152740479,402.0
10.967777013778687,405.0
10.97147011756897,411.0
10.975840091705322,422.0
11.000282287597656,439.0
11.00416612625122,464.0
11.007711410522461,496.0
11.03709626197815,533.0
11.040431261062622,574.0
11.04395318031311,616.0
11.047230243682861,655.0
11.051622152328491,687.0
11.074021100997925,711.0
11.07774305343628,724.0
11.082972288131714,725.0
11.106489181518555,716.0
11.110396146774292,697.0
11.114798069000244,672.0
11.12244200706482,642.0
11.151555061340332,609.0
11.155201196670532,575.0
11.16034722328186,542.0
11.184089183807373,509.0
11.187289237976074,480.0
11.19084620475769,454.0
11.194687128067017,433.0
11.205714225769043,418.0
11.234234094619751,409.0
11.238068342208862,406.0
11.241817235946655,408.0
11.24613618850708,416.0
11.267880201339722,428.0
11.271443367004395,443.0
11.275983095169067,460.0
11.303447008132935,479.0
11.306645154953003,497.0
11.309975147247314,513.0
11.338460206985474,524.0
11.342777252197266,533.0
11.346527338027954,537.0
11.351701974868774,538.0
11.374402046203613,535.0
11.377852201461792,530.0
11.38163709640503,521.0
11.385983943939209,511.0
11.40916919708252,501.0
11.412873268127441,490.0
11.417240142822266,478.0
11.441571235656738,467.0
11.44518518447876,457.0
11.448798179626465,450.0
11.453172206878662,443.0
11.475285053253174,437.0
11.478959083557129,433.0
11.483359336853027,431.0
11.512890100479126,430.0
11.516435146331787,430.0
11.520096063613892,431.0
11.524453163146973,432.0
11.546557188034058,435.0
11.550203084945679,441.0
11.555397272109985,453.0
11.579304218292236,469.0
11.582849025726318,495.0
11.587175130844116,530.0
11.638211250305176,572.0
11.641671180725098,619.0
11.64538311958313,669.0
11.649183988571167,716.0
11.65266728401184,756.0
11.657114267349243,787.0
11.675241947174072,805.0
11.675427198410034,810.0
11.67928433418274,802.0
11.683994054794312,782.0
11.689209222793579,755.0
11.719196319580078,721.0
11.722784996032715,685.0
11.727128028869629,647.0
11.751603364944458,610.0
11.755242109298706,577.0
11.759600162506104,547.0
11.784022092819214,522.0
11.787759065628052,501.0
11.791534185409546,483.0
11.79590916633606,469.0
11.819636344909668,457.0
11.822822093963623,447.0
11.828013181686401,443.0
11.851503133773804,440.0
11.85512924194336,442.0
11.859619140625,448.0
11.884201288223267,455.0
11.884382247924805,465.0
11.887789011001587,477.0
11.892162084579468,489.0
11.936716079711914,501.0
11.940432071685791,511.0
11.944092273712158,519.0
11.947667360305786,526.0
11.952883243560791,529.0
11.973645210266113,531.0
11.977174043655396,530.0
11.980735063552856,527.0
11.985156059265137,523.0
12.005709171295166,517.0
12.009412050247192,511.0
12.01333236694336,504.0
12.02502703666687,496.0
12.029395341873169,487.0
12.056870222091675,480.0
12.060451030731201,472.0
12.064870119094849,468.0
12.081501245498657,462.0
12.085151195526123,459.0
12.089537143707275,456.0
12.125489234924316,454.0
12.129067182540894,456.0
12.13273811340332,464.0
12.137205123901367,479.0
12.160253286361694,502.0
12.16393518447876,537.0
12.16836929321289,579.0
12.193602085113525,627.0
12.197197198867798,677.0
12.20075535774231,723.0
12.2052001953125,764.0
12.23936939239502,793.0
12.242868185043335,809.0
12.247016191482544,813.0
12.251358270645142,805.0
12.274043083190918,784.0
12.277543306350708,756.0
12.281928300857544,722.0
12.306515216827393,686.0
12.310179233551025,648.0
12.313510179519653,612.0
12.31682825088501,579.0
12.38347315788269,550.0
12.386816024780273,525.0
12.390295028686523,504.0
12.39356017112732,487.0
12.396944284439087,473.0
12.400792121887207,462.0
12.405221223831177,455.0
12.408958196640015,450.0
12.412896156311035,447.0
12.416710138320923,448.0
12.439061164855957,451.0
12.442704200744629,456.0
12.44707727432251,464.0
12.471486330032349,472.0
12.475212097167969,482.0
12.479559183120728,491.0
12.504021167755127,500.0
12.50808596611023,507.0
12.511691093444824,512.0
12.517125129699707,514.0
12.54421615600586,515.0
12.54767918586731,515.0
12.551353216171265,512.0
12.55577802658081,508.0
12.577805042266846,502.0
12.581470251083374,496.0
12.585873126983643,489.0
12.610247135162354,482.0
12.61395812034607,475.0
12.619174242019653,468.0
12.642944097518921,462.0
12.646433115005493,457.0
12.650084257125854,453.0
12.654446125030518,450.0
12.676555156707764,448.0
12.680229187011719,447.0
12.685411214828491,449.0
12.720956325531006,452.0
12.72434401512146,462.0
12.728400230407715,480.0
12.737786054611206,507.0
12.741419076919556,543.0
12.74581503868103,587.0
12.770344257354736,636.0
12.773914098739624,685.0
12.777595281600952,731.0
12.781940937042236,768.0
12.804083347320557,792.0
12.80820918083191,806.0
12.812639236450195,803.0
12.842811107635498,788.0
12.846431970596313,764.0
12.85011100769043,733.0
12.854469299316406,697.0
12.876508235931396,660.0
12.88015627861023,625.0
12.884658336639404,590.0
12.909162044525146,559.0
12.912783145904541,533.0
12.917155027389526,511.0
12.943994283676147,491.0
12.947692155838013,475.0
12.95134425163269,462.0
12.955685138702393,451.0
12.977753162384033,444.0
12.981706142425537,441.0
12.986266136169434,439.0
12.990685224533081,439.0
13.000039339065552,442.0
13.028199195861816,446.0
13.031525135040283,453.0
13.03485631942749,462.0
13.062820196151733,471.0
13.066481113433838,482.0
13.070982217788696,492.0
13.095263242721558,499.0
13.098926067352295,505.0
13.1026291847229,509.0
13.106892108917236,510.0
13.148158311843872,508.0
13.151713132858276,505.0
13.155375242233276,501.0
13.15908408164978,496.0
13.162622928619385,489.0
13.167148113250732,483.0
13.185328245162964,478.0
13.188961029052734,472.0
13.193395376205444,467.0
13.217911005020142,462.0
13.221510171890259,458.0
13.225933074951172,455.0
13.251583099365234,450.0
13.255226135253906,448.0
13.259639024734497,445.0
13.284310102462769,442.0
13.288824081420898,442.0
13.293198108673096,443.0
13.317787170410156,445.0
13.321439981460571,451.0
13.32512617111206,465.0
13.329500198364258,487.0
13.36295223236084,518.0
13.3665132522583,557.0
13.370221138000488,603.0
13.373821258544922,651.0
13.378237247467041,697.0
13.399072170257568,736.0
13.403036117553711,768.0
13.407440185546875,786.0
13.437334060668945,791.0
13.440975189208984,786.0
13.444648265838623,771.0
13.448488235473633,747.0
13.456523180007935,715.0
13.461924076080322,681.0
13.487748146057129,646.0
13.491409301757812,613.0
13.497165203094482,583.0
13.520350217819214,554.0
13.524200201034546,530.0
13.529258966445923,508.0
13.559020042419434,489.0
13.562700033187866,472.0
13.566311120986938,458.0
13.570677995681763,447.0
13.592856168746948,439.0
13.59645414352417,433.0
13.600130081176758,432.0
13.605358123779297,434.0
13.624082326889038,439.0
13.627642154693604,446.0
13.632006168365479,455.0
13.659220933914185,466.0
13.662828207015991,478.0
13.667225122451782,489.0
13.691573143005371,499.0
13.69520616531372,508.0
13.699556112289429,513.0
13.740609169006348,517.0
13.745604038238525,518.0
13.749029159545898,516.0
13.752281188964844,512.0
13.755614280700684,505.0
13.774039030075073,497.0
13.77770209312439,489.0
13.782201051712036,482.0
13.806578159332275,474.0
13.810335397720337,466.0
13.81407117843628,459.0
13.81842827796936,452.0
13.840255975723267,447.0
13.843961238861084,444.0
13.84788203239441,441.0
13.851148128509521,439.0
13.87402606010437,439.0
13.87768816947937,440.0
13.882007122039795,444.0
13.906508207321167,446.0
13.91015338897705,451.0
13.914570093154907,457.0
13.939028263092041,464.0
13.942700147628784,476.0
13.947058200836182,492.0
13.971632242202759,515.0
13.975212097167969,544.0
13.979627132415771,577.0
14.004070281982422,615.0
14.00805926322937,655.0
14.012104272842407,691.0
14.016550302505493,721.0
14.044063329696655,744.0
14.047680139541626,757.0
14.052597045898438,760.0
14.055843114852905,752.0
14.07780122756958,735.0
14.08142900466919,712.0
14.085803031921387,684.0
14.11407208442688,654.0
14.117682218551636,622.0
14.121317148208618,592.0
14.125663995742798,564.0
14.147919178009033,539.0
14.15152621269226,517.0
14.155151128768921,499.0
14.180290222167969,483.0
14.18392014503479,470.0
14.188378095626831,460.0
14.21290111541748,452.0
14.216407060623169,448.0
14.220075130462646,445.0
14.224516153335571,447.0
14.246568202972412,450.0
14.250113010406494,455.0
14.254589319229126,463.0
14.257878065109253,472.0
14.28661823272705,482.0
14.290704250335693,491.0
14.295107126235962,499.0
14.336815118789673,504.0
14.340445280075073,509.0
14.344095230102539,510.0
14.347678184509277,510.0
14.352052211761475,508.0
14.378335952758789,504.0
14.415993213653564,499.0
14.419358253479004,491.0
14.42280125617981,485.0
14.426105260848999,480.0
14.429521322250366,474.0
14.433268308639526,469.0
14.437081098556519,467.0
14.44093108177185,464.0
14.482378005981445,463.0
14.485556364059448,463.0
14.488821029663086,463.0
14.492079257965088,463.0
14.495212078094482,462.0
14.498406171798706,461.0
14.55741000175476,459.0
14.560562133789062,459.0
14.563761234283447,457.0
14.567122220993042,456.0
14.570516347885132,455.0
14.574495315551758,453.0
14.578269243240356,454.0
14.582061052322388,460.0
14.68723726272583,472.0
14.690615177154541,494.0
14.693769216537476,521.0
14.697150230407715,556.0
14.70048713684082,594.0
14.704352140426636,632.0
14.707679271697998,667.0
14.733042240142822,694.0
14.736544132232666,714.0
14.740307331085205,722.0
14.744031190872192,721.0
14.747801065444946,711.0
14.751532077789307,694.0
14.755330085754395,672.0
14.759054183959961,647.0
14.762818098068237,620.0
14.768003225326538,593.0
14.771331071853638,567.0
14.774671077728271,542.0
14.7940993309021,519.0
14.797763109207153,499.0
14.802909135818481,482.0
14.826519012451172,467.0
14.830204248428345,456.0
14.833819150924683,449.0
14.838196992874146,446.0
14.860283136367798,446.0
14.863996267318726,450.0
14.867627143859863,456.0
14.870890140533447,464.0
14.894052267074585,474.0
14.897727966308594,483.0
14.902143001556396,491.0
14.936727046966553,497.0
14.94033408164978,501.0
14.94399118423462,504.0
14.948359251022339,504.0
14.971546173095703,501.0
14.974847078323364,499.0
14.978563070297241,495.0
14.990429162979126,490.0
14.9949312210083,486.0
15.0023832321167,480.0
15.03160810470581,475.0
15.03541612625122,470.0
15.040014028549194,466.0
15.044556140899658,463.0
15.07154107093811,459.0
15.075163125991821,457.0
15.078611373901367,456.0
15.082396268844604,455.0
15.091562986373901,455.0
15.09611701965332,454.0
15.12287425994873,456.0
15.126492261886597,456.0
15.130900382995605,455.0
15.155287027359009,454.0
15.158965110778809,455.0
15.163329124450684,455.0
15.193416357040405,455.0
15.197813034057617,455.0
15.201516151428223,456.0
15.205857038497925,459.0
15.240662097930908,467.0
15.244096040725708,482.0
15.247830152511597,502.0
15.252241134643555,528.0
15.28071403503418,559.0
15.284574270248413,592.0
15.297780275344849,624.0
15.30143427848816,653.0
15.305176019668579,675.0
15.30884313583374,688.0
15.313215017318726,691.0
15.335276126861572,688.0
15.33881425857544,678.0
15.343202114105225,661.0
15.368667125701904,637.0
15.37218713760376,611.0
15.377375364303589,585.0
15.400298118591309,559.0
15.403980016708374,534.0
15.408342123031616,512.0
15.432955265045166,492.0
15.43659520149231,474.0
15.440964221954346,460.0
15.46532130241394,447.0
15.469054222106934,438.0
15.47293210029602,433.0
15.477238178253174,433.0
15.502862215042114,436.0
15.506848096847534,445.0
15.510452270507812,458.0
15.516539096832275,473.0
15.54283618927002,492.0
15.546431064605713,511.0
15.550071001052856,528.0
15.554466009140015,543.0
15.57654619216919,555.0
15.58025336265564,563.0
15.584631204605103,568.0
15.609055280685425,566.0
15.61276125907898,560.0
15.617176055908203,550.0
15.641550064086914,536.0
15.645085334777832,521.0
15.649429082870483,504.0
15.673989295959473,488.0
15.677579164505005,473.0
15.681950330734253,459.0
15.707810163497925,448.0
15.711658954620361,438.0
15.715317010879517,432.0
15.718874216079712,428.0
15.72324514389038,426.0
15.742786169052124,425.0
15.746345281600952,425.0
15.750662088394165,427.0
15.755364179611206,429.0
15.785351276397705,434.0
15.789137125015259,440.0
15.791973114013672,448.0
15.838016986846924,457.0
15.841667175292969,471.0
15.845357179641724,492.0
15.848848104476929,518.0
15.853225946426392,547.0
15.874006032943726,582.0
15.87774109840393,619.0
15.881335020065308,655.0
15.8856942653656,686.0
15.921825170516968,713.0
15.925437211990356,730.0
15.929097175598145,738.0
15.932658195495605,735.0
15.937093257904053,723.0
15.957797288894653,703.0
15.961714267730713,679.0
15.966301202774048,652.0
15.970787048339844,622.0
15.997039079666138,593.0
16.000606298446655,568.0
16.00459623336792,542.0
16.015751123428345,520.0
16.01910400390625,501.0
16.047155141830444,485.0
16.050535202026367,470.0
16.053763151168823,459.0
16.080331087112427,450.0
16.083962202072144,444.0
16.08831000328064,441.0
16.137953996658325,441.0
16.141555309295654,445.0
16.145223140716553,452.0
16.148863077163696,461.0
16.15252709388733,472.0
16.152701139450073,483.0
16.156880140304565,492.0
16.175260305404663,503.0
16.17880129814148,511.0
16.183173179626465,518.0
16.218117237091064,523.0
16.22163414955139,528.0
16.225329160690308,532.0
16.22965908050537,533.0
16.252791166305542,532.0
16.25652503967285,529.0
16.260103225708008,526.0
16.26448917388916,522.0
16.28675603866577,517.0
16.29028820991516,512.0
16.29467225074768,506.0
16.32152009010315,499.0
16.32519507408142,491.0
16.32956314086914,483.0
16.354064226150513,475.0
16.357707977294922,467.0
16.361354112625122,458.0
16.365723133087158,451.0
16.387794256210327,445.0
16.391467094421387,440.0
16.39589500427246,438.0
16.43804121017456,436.0
16.441694259643555,437.0
16.44539713859558,442.0
16.44892430305481,451.0
16.453327178955078,466.0
16.47405219078064,489.0
16.47773313522339,519.0
16.481357097625732,557.0
16.485719203948975,598.0
16.50042700767517,639.0
16.504878044128418,679.0
16.53412413597107,712.0
16.538065195083618,737.0
16.542518138885498,753.0
16.562841176986694,759.0
16.5666081905365,755.0
16.57037329673767,743.0
16.57476019859314,723.0
16.59654402732849,698.0
16.600062370300293,670.0
16.604435205459595,639.0
16.629048109054565,609.0
16.632731199264526,581.0
16.637137174606323,555.0
16.65039825439453,530.0
16.654898166656494,509.0
16.68163824081421,491.0
16.685232162475586,476.0
16.69039511680603,463.0
16.73940920829773,454.0
16.74298119544983,449.0
16.746771335601807,448.0
16.750477075576782,449.0
16.754029035568237,453.0
16.758414030075073,460.0
16.77662420272827,467.0
16.780246019363403,476.0
16.78462314605713,484.0
16.784786224365234,492.0
16.80906915664673,498.0
16.8127281665802,504.0
16.816073179244995,507.0
16.81934428215027,508.0
16.842807054519653,509.0
16.846517086029053,507.0
16.85088610649109,502.0
16.875290155410767,498.0
16.878974199295044,492.0
16.883313179016113,486.0
16.907804250717163,480.0
16.911696195602417,476.0
16.916173219680786,471.0
16.94281315803528,466.0
16.94649028778076,463.0
16.95086121559143,460.0
16.975292205810547,459.0
16.9789559841156,459.0
16.9826762676239,461.0
16.987094163894653,462.0
17.03820013999939,464.0
17.04175305366516,466.0
17.0455060005188,470.0
17.049345016479492,473.0
17.05309009552002,478.0
17.05682921409607,482.0
17.061127185821533,492.0
17.079060316085815,508.0
17.082722187042236,530.0
17.087149143218994,558.0
17.111597061157227,590.0
17.115240335464478,624.0
17.11958336830139,659.0
17.14400625228882,689.0
17.147764205932617,716.0
17.15135908126831,735.0
17.155755043029785,745.0
17.178194284439087,745.0
17.182613134384155,736.0
17.201595306396484,722.0
17.205225944519043,700.0
17.208858251571655,676.0
17.213330268859863,649.0
17.24282217025757,622.0
17.246477127075195,595.0
17.250091075897217,569.0
17.25446128845215,547.0
17.276548147201538,526.0
17.280187129974365,507.0
17.284539222717285,491.0
17.346473217010498,476.0
17.350521087646484,465.0
17.354104042053223,457.0
17.357840299606323,451.0
17.36159610748291,449.0
17.365331172943115,449.0
17.36887216567993,453.0
17.373308181762695,457.0
17.377713203430176,465.0
17.382193326950073,474.0
17.407864093780518,483.0
17.411588191986084,493.0
17.41594696044922,500.0
17.447102308273315,505.0
17.48104214668274,510.0
17.48436403274536,511.0
17.487807989120483,510.0
17.49113416671753,507.0
17.494770288467407,504.0
17.498517990112305,497.0
17.52065110206604,491.0
17.52407717704773,484.0
17.527366161346436,478.0
17.531371116638184,471.0
17.5347421169281,465.0
17.557790279388428,461.0
17.56147813796997,456.0
17.565848112106323,454.0
17.5902681350708,452.0
17.593815088272095,451.0
17.598153352737427,451.0
17.636077165603638,452.0
17.65153217315674,455.0
17.65484619140625,459.0
17.658456087112427,464.0
17.662001132965088,472.0
17.665797233581543,481.0
17.67017436027527,496.0
17.687812089920044,514.0
17.69154930114746,536.0
17.695921182632446,563.0
17.720526218414307,592.0
17.7240571975708,623.0
17.729210138320923,652.0
17.753796100616455,676.0
17.757288217544556,696.0
17.760852336883545,708.0
17.765199184417725,712.0
17.78665328025818,711.0
17.79032611846924,704.0
17.79467010498047,693.0
17.820152044296265,678.0
17.84104013442993,661.0
17.860344171524048,644.0
17.864053964614868,625.0
17.867834091186523,609.0
17.871512174606323,593.0
17.87504529953003,576.0
17.879443168640137,558.0
17.89901614189148,540.0
17.902546167373657,523.0
17.906938076019287,507.0
17.93729519844055,492.0
17.94067406654358,479.0
17.944027185440063,467.0
17.947288036346436,457.0
17.972949981689453,451.0
17.976760149002075,448.0
17.98043918609619,447.0
17.98486018180847,449.0
18.006553173065186,455.0
18.010225296020508,460.0
18.01461124420166,467.0
18.039218187332153,473.0
18.04333209991455,482.0
18.047118186950684,489.0
18.059101343154907,492.0
18.062824249267578,496.0
18.067220211029053,498.0
18.09155821800232,499.0
18.095221042633057,497.0
18.099557161331177,494.0
18.12405300140381,493.0
18.127710342407227,488.0
18.13212013244629,484.0
18.163079261779785,480.0
18.166569232940674,475.0
18.170284032821655,469.0
18.175485134124756,466.0
18.19781231880188,463.0
18.201350212097168,460.0
18.205819129943848,457.0
18.241928339004517,455.0
18.245366096496582,453.0
18.24875521659851,452.0
18.25205707550049,451.0
18.27652621269226,451.0
18.28021502494812,451.0
18.283865213394165,453.0
18.288185119628906,455.0
18.310322284698486,462.0
18.313981294631958,472.0
18.317626237869263,488.0
18.322201251983643,508.0
18.33077621459961,534.0
18.366738319396973,563.0
18.370331287384033,593.0
18.374052047729492,623.0
18.37929916381836,650.0
18.401535987854004,672.0
18.40558409690857,688.0
18.410513162612915,696.0
18.414934158325195,696.0
18.441550254821777,689.0
18.445231199264526,678.0
18.449615240097046,664.0
18.480574369430542,644.0
18.484055042266846,624.0
18.487706184387207,603.0
18.491294384002686,581.0
18.495625257492065,558.0
18.538249254226685,536.0
18.541929244995117,516.0
18.54564118385315,497.0
18.54906702041626,480.0
18.55262517929077,464.0
18.574517965316772,451.0
18.578142166137695,441.0
18.581722259521484,434.0
18.586066246032715,432.0
18.60783314704895,432.0
18.61154818534851,435.0
18.61598014831543,441.0
18.640422105789185,448.0
18.64410901069641,455.0
18.648359298706055,462.0
18.675390243530273,468.0
18.679007291793823,473.0
18.6826491355896,479.0
18.687166929244995,481.0
18.70915722846985,483.0
18.71285605430603,483.0
18.716472148895264,483.0
18.720856189727783,483.0
18.743719339370728,482.0
18.747347354888916,485.0
18.7519690990448,488.0
18.75717306137085,491.0
18.78803515434265,495.0
18.79180121421814,502.0
18.796348333358765,507.0
18.837624073028564,511.0
18.841134071350098,516.0
18.84474515914917,519.0
18.84828519821167,521.0
18.85184931755066,521.0
18.87212324142456,519.0
18.875585079193115,515.0
18.88001322746277,507.0
18.90530037879944,496.0
18.90899920463562,484.0
18.91262912750244,474.0
18.917071104049683,465.0
18.939056158065796,461.0
18.942546129226685,465.0
18.94693398475647,479.0
18.981730222702026,501.0
18.985478162765503,530.0
18.989124059677124,564.0
18.992655277252197,599.0
18.997860193252563,632.0
19.017881155014038,663.0
19.021098136901855,685.0
19.025495052337646,699.0
19.05033540725708,704.0
19.05397605895996,702.0
19.05832600593567,692.0
19.08409023284912,675.0
19.08773136138916,654.0
19.092104196548462,632.0
19.154304027557373,607.0
19.157978057861328,583.0
19.1618332862854,558.0
19.165963172912598,532.0
19.169507026672363,509.0
19.172855138778687,486.0
19.177096366882324,465.0
19.180875062942505,448.0
19.18548035621643,432.0
19.189382314682007,423.0
19.193825006484985,418.0
19.21915316581726,418.0
19.222734212875366,423.0
19.227132320404053,434.0
19.25155520439148,447.0
19.25506830215454,464.0
19.259425163269043,481.0
19.289098024368286,498.0
19.292760133743286,513.0
19.296386003494263,525.0
19.300795078277588,532.0
19.32288932800293,535.0
19.326330184936523,533.0
19.330780267715454,527.0
19.355300188064575,515.0
19.358959197998047,503.0
19.36261820793152,490.0
19.367002248764038,477.0
19.391579151153564,465.0
19.395227193832397,456.0
19.398866176605225,448.0
19.403234004974365,444.0
19.436742305755615,441.0
19.440340280532837,443.0
19.44405722618103,446.0
19.448440074920654,451.0
19.47160506248474,455.0
19.47678828239441,460.0
19.480062246322632,463.0
19.50328803062439,465.0
19.50670838356018,467.0
19.510716199874878,469.0
19.514605045318604,470.0
19.561206102371216,471.0
19.564359188079834,476.0
19.567589282989502,486.0
19.570881128311157,500.0
19.574026107788086,519.0
19.5772762298584,541.0
19.624826192855835,567.0
19.62813901901245,595.0
19.63136315345764,620.0
19.634618282318115,642.0
19.63776421546936,658.0
19.64098024368286,670.0
19.688586950302124,674.0
19.69187021255493,672.0
19.69506311416626,665.0
19.698370218276978,652.0
19.701514959335327,637.0
19.70473313331604,621.0
19.766075134277344,603.0
19.769800186157227,584.0
19.798883199691772,567.0
19.80316424369812,551.0
19.806846380233765,534.0
19.81058621406555,518.0
19.81433415412903,503.0
19.818106174468994,490.0
19.821842193603516,478.0
19.82555913925171,467.0
19.829331159591675,461.0
19.833014011383057,455.0
19.836520195007324,454.0
19.841470956802368,454.0
19.859081268310547,457.0
19.862751960754395,462.0
19.86710500717163,467.0
19.89082431793213,473.0
19.89426302909851,479.0
19.8976571559906,484.0
19.9240403175354,486.0
19.92760705947876,488.0
19.931962251663208,490.0
19.956563234329224,488.0
19.96022129058838,484.0
19.964595317840576,480.0
19.988304138183594,475.0
19.99206233024597,470.0
19.99225115776062,464.0
19.99585509300232,459.0
20.036781072616577,453.0
20.040443181991577,448.0
20.044113159179688,444.0
20.047647953033447,444.0
20.05199933052063,447.0
20.07284927368164,451.0
20.07650923728943,459.0
20.08009123802185,468.0
20.084484100341797,482.0
20.10656213760376,499.0
20.110255241394043,519.0
20.11464214324951,545.0
20.139039278030396,574.0
20.14274311065674,605.0
20.14716124534607,636.0
20.17159605026245,664.0
20.17521095275879,688.0
20.179582357406616,704.0
20.209278345108032,711.0
20.213104248046875,709.0
20.21661901473999,697.0
20.220147371292114,679.0
20.22448992729187,656.0
20.245331287384033,631.0
20.248915195465088,604.0
20.25344204902649,576.0
20.257938146591187,550.0
20.287846088409424,526.0
20.29149103164673,506.0
20.294777154922485,489.0
20.33682918548584,476.0
20.34048819541931,466.0
20.344170093536377,458.0
20.34774613380432,452.0
20.352132081985474,448.0
20.372807264328003,445.0
20.376505136489868,444.0
20.380921125411987,446.0
20.413036108016968,448.0
20.41671919822693,452.0
20.420379161834717,457.0
20.423896074295044,463.0
20.428245067596436,470.0
20.44904923439026,477.0
20.45259714126587,483.0
20.456948280334473,489.0
20.481537103652954,494.0
20.485230207443237,496.0
20.48887610435486,499.0
20.49335813522339,499.0
20.517808198928833,497.0
20.52134132385254,494.0
20.52460527420044,490.0
20.570017099380493,485.0
20.573111057281494,480.0
20.57648205757141,475.0
20.579678297042847,470.0
20.582871198654175,464.0
20.637290000915527,459.0
20.640563249588013,456.0
20.643776178359985,455.0
20.64718008041382,453.0
20.650800228118896,454.0
20.654550075531006,455.0
20.658290147781372,456.0
20.661763191223145,457.0
20.69854211807251,457.0
20.70183229446411,460.0
20.70504903793335,463.0
20.708317279815674,470.0
20.711575031280518,480.0
20.714709997177124,497.0
20.754767179489136,519.0
20.7592191696167,547.0
20.762893199920654,579.0
20.766414165496826,614.0
20.770814180374146,648.0
20.79659628868103,679.0
20.800212383270264,703.0
20.803876161575317,721.0
20.809065341949463,731.0
20.83061122894287,731.0
20.834209203720093,723.0
20.837924242019653,709.0
20.842353105545044,689.0
20.864261150360107,666.0
20.8686420917511,643.0
20.87299609184265,619.0
20.89710831642151,596.0
20.900567054748535,575.0
20.904269218444824,556.0
20.950271129608154,538.0
20.95321011543274,521.0
20.95654010772705,506.0
20.959795236587524,493.0
20.96322202682495,481.0
20.999555110931396,471.0
21.003053188323975,461.0
21.006676197052002,454.0
21.010172128677368,450.0
21.014584064483643,446.0
21.0431911945343,446.0
21.046457052230835,448.0
21.049777269363403,453.0
21.053102254867554,459.0
21.05638813972473,467.0
21.079308032989502,473.0
21.082932949066162,481.0
21.087294340133667,487.0
21.11193013191223,493.0
21.115888118743896,498.0
21.119492053985596,501.0
21.123845100402832,502.0
21.145507097244263,503.0
21.14913320541382,502.0
21.153491258621216,499.0
21.178213119506836,496.0
21.181467294692993,489.0
21.18627119064331,483.0
21.236801147460938,476.0
21.2402241230011,470.0
21.24395227432251,464.0
21.2476589679718,457.0
21.251233100891113,449.0
21.255594968795776,444.0
21.274136066436768,439.0
21.27421808242798,437.0
21.27748131752014,436.0
21.28086018562317,440.0
21.332420110702515,451.0
21.33545708656311,468.0
21.338821172714233,494.0
21.34207320213318,527.0
21.345200300216675,564.0
21.348250150680542,603.0
21.396124124526978,640.0
21.399408102035522,673.0
21.402603149414062,698.0
21.40590524673462,711.0
21.409151077270508,716.0
21.413339138031006,710.0
21.467334270477295,696.0
21.470668077468872,676.0
21.47385597229004,651.0
21.47716212272644,624.0
21.48050093650818,598.0
21.483869314193726,572.0
21.487025260925293,546.0
21.490172147750854,522.0
21.536211252212524,501.0
21.539842128753662,482.0
21.59757423400879,465.0
21.60062313079834,451.0
21.603891372680664,440.0
21.60715413093567,432.0
21.610831260681152,428.0
21.6145920753479,426.0
21.61836004257202,427.0
21.658030033111572,432.0
21.680902242660522,438.0
21.732466220855713,444.0
21.736005067825317,451.0
21.770201206207275,461.0
21.773865222930908,470.0
21.777680158615112,479.0
21.781233310699463,487.0
21.784767150878906,495.0
21.78846001625061,500.0
21.792113304138184,502.0
21.795668363571167,501.0
21.79935622215271,498.0
21.803229331970215,494.0
21.80723524093628,488.0
21.810585260391235,482.0
21.837826013565063,476.0
21.84136128425598,468.0
21.845007181167603,463.0
21.848644256591797,457.0
21.852219104766846,452.0
21.855919122695923,448.0
21.859474182128906,445.0
21.863131284713745,443.0
21.867064237594604,441.0
21.870718240737915,440.0
21.87423324584961,441.0
21.878096103668213,442.0
21.881641387939453,449.0
21.88704514503479,460.0
21.904503107070923,479.0
21.90964913368225,505.0
21.912854194641113,537.0
21.91618299484253,575.0
21.938003301620483,614.0
21.941561222076416,652.0
21.94596028327942,684.0
21.97035527229309,708.0
21.97402024269104,722.0
21.97838020324707,725.0
22.002836227416992,717.0
22.006580352783203,703.0
22.011666297912598,681.0
22.01495599746704,655.0
22.03658699989319,627.0
22.04024910926819,600.0
22.044621229171753,574.0
22.069294214248657,550.0
22.07283926010132,528.0
22.07719111442566,509.0
22.101575136184692,492.0
22.10561203956604,475.0
22.109174013137817,461.0
22.114129304885864,448.0
22.141731023788452,439.0
22.145387172698975,431.0
22.14915919303894,426.0
22.15435528755188,424.0
22.179070234298706,424.0
22.18276619911194,427.0
22.18718409538269,433.0
22.211730241775513,440.0
22.215389251708984,449.0
22.21868324279785,458.0
22.24490213394165,467.0
22.248489379882812,475.0
22.25206232070923,481.0
22.256510972976685,486.0
22.277825117111206,489.0
22.281460285186768,491.0
22.285831212997437,489.0
22.322306156158447,487.0
22.325676202774048,483.0
22.32896614074707,479.0
22.332303047180176,474.0
22.336640119552612,469.0
22.35905623435974,463.0
22.362802267074585,459.0
22.367221117019653,454.0
22.39156723022461,450.0
22.39531898498535,447.0
22.3993661403656,444.0
22.404149055480957,441.0
22.438063144683838,439.0
22.44166135787964,438.0
22.445362329483032,437.0
22.449425220489502,436.0
22.472869157791138,435.0
22.476555109024048,436.0
22.48091435432434,440.0
22.505375385284424,448.0
22.508989334106445,462.0
22.512628316879272,483.0
22.51697015762329,511.0
22.539051055908203,545.0
22.54274821281433,584.0
22.546330213546753,623.0
22.550806045532227,659.0
22.57293725013733,689.0
22.576545000076294,713.0
22.58088231086731,725.0
22.60535216331482,727.0
22.608988285064697,720.0
22.613367080688477,704.0
22.639142274856567,684.0
22.642778158187866,658.0
22.64713430404663,630.0
22.671557188034058,602.0
22.675089120864868,576.0
22.679468154907227,551.0
22.704060316085815,528.0
22.708104133605957,510.0
22.71179699897766,494.0
22.71659016609192,478.0
22.746130228042603,465.0
22.74941897392273,453.0
22.753144025802612,444.0
22.756716012954712,437.0
22.761038064956665,432.0
22.782846927642822,431.0
22.786538124084473,431.0
22.790850162506104,436.0
22.815340042114258,442.0
22.819030046463013,450.0
22.823406219482422,458.0
22.847841024398804,466.0
22.851490020751953,474.0
22.855876207351685,480.0
22.8803870677948,484.0
22.88403606414795,489.0
22.888413190841675,491.0
22.912896156311035,492.0
22.916882276535034,489.0
22.922404050827026,487.0
22.92680335044861,483.0
22.961750030517578,478.0
22.965372323989868,473.0
22.969171285629272,469.0
22.972800970077515,465.0
22.977684259414673,461.0
22.997350215911865,459.0
23.000924110412598,455.0
23.004509210586548,453.0
23.039900302886963,449.0
23.043320178985596,446.0
23.0467631816864,444.0
23.050220012664795,440.0
23.053418159484863,438.0
23.07843828201294,435.0
23.083073139190674,437.0
23.08755922317505,438.0
23.114259243011475,439.0
23.11767816543579,443.0
23.121401071548462,450.0
23.125844955444336,462.0
23.130953311920166,480.0
23.15895414352417,505.0
23.162302255630493,536.0
23.16568112373352,571.0
23.190741062164307,607.0
23.194157123565674,641.0
23.197883129119873,670.0
23.2022922039032,690.0
23.22552227973938,702.0
23.22908329963684,704.0
23.233466148376465,699.0
23.257814168930054,684.0
23.26151132583618,664.0
23.2658371925354,640.0
23.279141187667847,615.0
23.283771276474,590.0
23.33697009086609,565.0
23.342286109924316,542.0
23.34574818611145,520.0
23.349582195281982,502.0
23.352893352508545,483.0
23.356006145477295,468.0
23.359179973602295,454.0
23.38439702987671,440.0
23.387957096099854,430.0
23.39185404777527,422.0
23.396923303604126,417.0
23.401288270950317,416.0
23.42786931991577,417.0
23.43210005760193,422.0
23.43650722503662,428.0
23.461632013320923,435.0
23.46536421775818,445.0
23.46894407272339,455.0
23.473320245742798,464.0
23.495320081710815,472.0
23.49901008605957,480.0
23.503433227539062,484.0
23.52790927886963,487.0
23.531535148620605,488.0
23.535879135131836,488.0
23.56036925315857,487.0
23.56400418281555,485.0
23.5684232711792,482.0
23.60050320625305,479.0
23.604105949401855,475.0
23.608257055282593,471.0
23.612203121185303,466.0
23.61656618118286,462.0
23.645363330841064,458.0
23.649391174316406,454.0
23.652648210525513,449.0
23.65592122077942,446.0
23.679184198379517,444.0
23.682772397994995,444.0
23.68713617324829,443.0
23.71176505088806,443.0
23.71531915664673,444.0
23.719648122787476,444.0
23.744115352630615,444.0
23.747732400894165,444.0
23.751695156097412,446.0
23.754987001419067,451.0
23.777133226394653,460.0
23.780831336975098,475.0
23.8336980342865,497.0
23.83687925338745,525.0
23.840123176574707,558.0
23.84341812133789,593.0
23.846781253814697,628.0
23.849849224090576,658.0
23.85303235054016,683.0
23.9011971950531,698.0
23.904425382614136,706.0
23.90762710571289,703.0
23.91097331047058,692.0
23.91411519050598,675.0
23.91741633415222,652.0
23.920626163482666,627.0
23.976048231124878,600.0
23.97974133491516,574.0
24.028704166412354,551.0
24.031883001327515,530.0
24.035040140151978,511.0
24.03846502304077,494.0
24.041882276535034,480.0
24.045868158340454,468.0
24.049567222595215,459.0
24.05341911315918,453.0
24.09498906135559,449.0
24.098128080368042,450.0
24.101336240768433,452.0
24.10469126701355,456.0
24.10812020301819,463.0
24.111528158187866,472.0
24.114798069000244,479.0
24.118168115615845,487.0
24.122138261795044,492.0
24.12589716911316,495.0
24.13048219680786,498.0
24.13491725921631,500.0
24.16209101676941,500.0
24.16560411453247,498.0
24.169005155563354,492.0
24.195404052734375,486.0
24.19898819923401,480.0
24.20254898071289,473.0
24.207112312316895,465.0
24.28877902030945,456.0
24.29190230369568,449.0
24.2951443195343,442.0
24.29844617843628,437.0
24.301806211471558,433.0
24.3058762550354,431.0
24.309566974639893,430.0
24.31333303451538,431.0
24.35610604286194,433.0
24.359377145767212,435.0
24.362609148025513,438.0
24.365944147109985,440.0
24.369314193725586,444.0
24.37352228164673,448.0
24.377252101898193,451.0
24.38095211982727,453.0
24.42108416557312,455.0
24.424350261688232,456.0
24.42755913734436,456.0
24.430910348892212,458.0
24.4341561794281,461.0
24.43731713294983,466.0
24.44057607650757,476.0
24.488682985305786,492.0
24.491854190826416,513.0
24.4951171875,540.0
24.498451232910156,571.0
24.50204634666443,603.0
24.505221128463745,633.0
24.508451223373413,660.0
24.545609951019287,680.0
24.54923415184021,694.0
24.553105115890503,698.0
24.557159185409546,694.0
24.560842037200928,681.0
24.56522536277771,662.0
24.615995168685913,639.0
24.619235038757324,616.0
24.622515201568604,592.0
24.625838041305542,567.0
24.62901020050049,545.0
24.63223910331726,526.0
24.67854905128479,508.0
24.681873321533203,494.0
24.685118198394775,480.0
24.688477277755737,469.0
24.691805362701416,459.0
24.69507122039795,453.0
24.69827914237976,447.0
24.742456197738647,444.0
24.745983123779297,441.0
24.793662309646606,440.0
24.796873331069946,440.0
24.800084352493286,442.0
24.80388307571411,446.0
24.80716323852539,452.0
24.81046724319458,459.0
24.8138370513916,465.0
24.84181308746338,471.0
24.845372200012207,477.0
24.849103212356567,480.0
24.85285520553589,484.0
24.856595277786255,486.0
24.86021137237549,487.0
24.865459203720093,487.0
24.883334159851074,484.0
24.88662600517273,481.0
24.89002227783203,477.0
24.894411087036133,472.0
24.91791820526123,470.0
24.921571016311646,468.0
24.925990104675293,467.0
24.950420379638672,465.0
24.954102039337158,464.0
24.95844316482544,463.0
24.99071717262268,462.0
24.994291305541992,461.0
24.998051166534424,459.0
25.001718997955322,457.0
25.00606632232666,455.0
25.029527187347412,452.0
25.0331552028656,451.0
25.037569046020508,450.0
25.06284213066101,449.0
25.066542148590088,451.0
25.07091212272644,455.0
25.09534001350403,464.0
25.09904718399048,479.0
25.102652311325073,499.0
25.107564210891724,524.0
25.14381718635559,555.0
25.146295070648193,589.0
25.149908304214478,622.0
25.153489112854004,651.0
25.15789008140564,673.0
25.179134368896484,688.0
25.184142112731934,695.0
25.187450170516968,693.0
25.211730241775513,684.0
25.21524715423584,669.0
25.21959114074707,647.0
25.24424123764038,622.0
25.247748136520386,597.0
25.251452207565308,573.0
25.255806922912598,550.0
25.278045177459717,528.0
25.281618118286133,508.0
25.286392211914062,492.0
25.310375213623047,475.0
25.31399130821228,462.0
25.317625045776367,451.0
25.32199716567993,443.0
25.344264268875122,438.0
25.347958087921143,437.0
25.3523051738739,436.0
25.37658715248108,438.0
25.380244255065918,442.0
25.38472318649292,448.0
25.436838150024414,455.0
25.440510272979736,463.0
25.44430422782898,471.0
25.447978019714355,478.0
25.451576232910156,483.0
25.455947160720825,489.0
25.47406530380249,492.0
25.47760009765625,495.0
25.482036352157593,496.0
25.521831274032593,497.0
25.52555227279663,497.0
25.52942728996277,495.0
25.532990217208862,491.0
25.536525011062622,486.0
25.540902137756348,481.0
25.55913519859314,477.0
25.56280016899109,473.0
25.567970037460327,471.0
25.61242413520813,467.0
25.615658044815063,463.0
25.618802309036255,459.0
25.622132301330566,457.0
25.625298261642456,457.0
25.628453254699707,457.0
25.673566341400146,456.0
25.67689538002014,457.0
25.680073976516724,458.0
25.683399200439453,458.0
25.686546325683594,456.0
25.689759969711304,455.0
25.73750925064087,455.0
25.74067521095276,456.0
25.74384832382202,455.0
25.747161149978638,459.0
25.75043296813965,467.0
25.75359320640564,480.0
25.75678825378418,501.0
25.80474328994751,529.0
25.80838131904602,562.0
25.812227249145508,599.0
25.825571060180664,634.0
25.82914423942566,666.0
25.832828283309937,691.0
25.836414337158203,707.0
25.840827226638794,715.0
25.860323190689087,713.0
25.86399531364441,705.0
25.868388175964355,688.0
25.8928861618042,665.0
25.896512985229492,640.0
25.899803161621094,613.0
25.925528049468994,587.0
25.92980718612671,562.0
25.93420124053955,540.0
25.9591121673584,521.0
25.962768077850342,504.0
25.962939262390137,488.0
25.96679711341858,475.0
25.971171140670776,464.0
25.99285125732422,455.0
25.996507167816162,448.0
26.00003409385681,442.0
26.03730607032776,440.0
26.040629148483276,441.0
26.044196128845215,443.0
26.047601222991943,448.0
26.05100107192993,454.0
26.08080220222473,461.0
26.08417320251465,468.0
26.0884952545166,476.0
26.11725115776062,483.0
26.120670318603516,489.0
26.12389826774597,494.0
26.127937078475952,498.0
26.161949157714844,500.0
26.165531158447266,501.0
26.169170141220093,501.0
26.17280101776123,499.0
26.177187204360962,496.0
26.19788122177124,492.0
26.201547145843506,488.0
26.20513105392456,484.0
26.23051905632019,481.0
26.234089374542236,476.0
26.238556146621704,473.0
26.262877225875854,469.0
26.266491174697876,466.0
26.270188093185425,464.0
26.2745521068573,461.0
26.29657006263733,460.0
26.30013418197632,459.0
26.3045072555542,459.0
26.3372220993042,457.0
26.340590238571167,457.0
26.344170093536377,458.0
26.349354028701782,458.0
26.371682167053223,458.0
26.375272274017334,461.0
26.37889528274536,465.0
26.383273363113403,473.0
26.405477285385132,487.0
26.409024000167847,507.0
26.412360191345215,533.0
26.438080072402954,564.0
26.44157910346985,599.0
26.44592308998108,635.0
26.470561027526855,668.0
26.474080085754395,695.0
26.478448152542114,714.0
26.502912044525146,725.0
26.506572008132935,727.0
26.5109760761261,719.0
26.535354137420654,705.0
26.539048194885254,685.0
26.542688131332397,660.0
26.547046184539795,632.0
26.569106340408325,604.0
26.5727481842041,577.0
26.577110052108765,552.0
26.641102075576782,528.0
26.644389152526855,508.0
26.647616147994995,489.0
26.65092134475708,474.0
26.654306173324585,461.0
26.658340215682983,451.0
26.66208004951477,445.0
26.665889024734497,441.0
26.71122407913208,441.0
26.714413166046143,444.0
26.71833109855652,449.0
26.72209095954895,457.0
26.725840091705322,464.0
26.768943071365356,474.0
26.771932125091553,483.0
26.77534818649292,492.0
26.778539180755615,501.0
26.78172206878662,507.0
26.784817218780518,511.0
26.787977933883667,513.0
26.823719263076782,512.0
26.826985359191895,511.0
26.830381155014038,509.0
26.83368229866028,507.0
26.836888074874878,502.0
26.84212827682495,496.0
26.861654043197632,490.0
26.86534309387207,486.0
26.868903160095215,481.0
26.873308181762695,477.0
26.895384073257446,472.0
26.899027347564697,469.0
26.903411149978638,466.0
26.941819190979004,466.0
26.945585250854492,466.0
26.9491970539093,465.0
26.952781200408936,464.0
26.95717716217041,462.0
26.977904081344604,460.0
26.981577157974243,459.0
26.985931158065796,459.0
27.01037621498108,457.0
27.014020204544067,455.0
27.017694234848022,456.0
27.022035360336304,459.0
27.043210983276367,466.0
27.046526193618774,479.0
27.04996609687805,500.0
27.076613187789917,531.0
27.08011817932129,571.0
27.08447003364563,616.0
27.1091411113739,665.0
27.112762212753296,714.0
27.11716318130493,758.0
27.141656160354614,790.0
27.145443201065063,810.0
27.149996042251587,818.0
27.177926301956177,812.0
27.181539058685303,796.0
27.18514609336853,767.0
27.190398931503296,732.0
27.24197220802307,692.0
27.245543241500854,652.0
27.249324083328247,612.0
27.253404140472412,575.0
27.257244110107422,541.0
27.260770082473755,511.0
27.26432728767395,486.0
27.269546031951904,465.0
27.290358066558838,448.0
27.2940411567688,436.0
27.29766821861267,428.0
27.302821159362793,424.0
27.324077129364014,425.0
27.32779312133789,430.0
27.331377267837524,439.0
27.356672048568726,451.0
27.360639095306396,467.0
27.36550235748291,483.0
27.39158010482788,500.0
27.395127058029175,517.0
27.39951729774475,534.0
27.409159183502197,547.0
27.413694381713867,556.0
27.440884351730347,563.0
27.444148302078247,566.0
27.44743514060974,565.0
27.451817274093628,558.0
27.47534728050232,549.0
27.4790301322937,537.0
27.48343825340271,525.0
27.53594422340393,512.0
27.53915810585022,501.0
27.54249119758606,490.0
27.555381059646606,480.0
27.55915331840515,471.0
27.562819242477417,464.0
27.566390991210938,460.0
27.571649074554443,457.0
27.590357065200806,456.0
27.594032287597656,457.0
27.598361253738403,460.0
27.622900247573853,461.0
27.626617193222046,465.0
27.631182193756104,468.0
27.65614104270935,471.0
27.659377098083496,475.0
27.662803173065186,478.0
27.662981271743774,482.0
27.68937921524048,489.0
27.692796230316162,500.0
27.697197198867798,520.0
27.721812963485718,548.0
27.725459337234497,584.0
27.729223251342773,626.0
27.73471999168396,672.0
27.755463123321533,716.0
27.759077072143555,755.0
27.764291048049927,786.0
27.787947177886963,804.0
27.791609048843384,811.0
27.796053171157837,805.0
27.838990211486816,787.0
27.84255313873291,761.0
27.84596014022827,728.0
27.84934115409851,692.0
27.852604150772095,655.0
27.874089241027832,620.0
27.877788305282593,588.0
27.88144302368164,560.0
27.885905265808105,538.0
27.907896041870117,521.0
27.91153311729431,509.0
27.91590929031372,502.0
27.94039011001587,499.0
27.94403624534607,499.0
27.947707176208496,501.0
27.972886085510254,504.0
27.97652816772461,508.0
27.98020029067993,512.0
27.985440015792847,515.0
28.006697177886963,516.0
28.010398149490356,517.0
28.014706134796143,515.0
28.03912615776062,512.0
28.042787075042725,510.0
28.04633903503418,507.0
28.082003355026245,505.0
28.085732221603394,504.0
28.089242219924927,503.0
28.09274911880493,503.0
28.09797239303589,504.0
28.14058017730713,506.0
28.144160985946655,508.0
28.147804260253906,512.0
28.15185832977295,515.0
28.15510606765747,518.0
28.158400058746338,519.0
28.177930116653442,518.0
28.181579113006592,515.0
28.185432195663452,512.0
28.209585189819336,507.0
28.21306610107422,500.0
28.21649932861328,494.0
28.242900371551514,486.0
28.24654722213745,479.0
28.25093412399292,472.0
28.275347232818604,465.0
28.278956174850464,460.0
28.28334617614746,455.0
28.307852029800415,454.0
28.31164526939392,460.0
28.315386056900024,475.0
28.31897211074829,498.0
28.323321104049683,531.0
28.34309220314026,574.0
28.346630096435547,625.0
28.351766109466553,680.0
28.375367164611816,731.0
28.378876209259033,774.0
28.383209943771362,807.0
28.43688130378723,828.0
28.44054913520813,834.0
28.444256067276,827.0
28.448020219802856,806.0
28.451560258865356,774.0
28.45690107345581,737.0
28.471619129180908,696.0
28.476211309432983,656.0
28.50290298461914,616.0
28.50661826133728,578.0
28.51039409637451,545.0
28.514463186264038,518.0
28.518805980682373,495.0
28.537902116775513,479.0
28.541551113128662,467.0
28.545878171920776,460.0
28.56969428062439,456.0
28.5729341506958,457.0
28.57659912109375,462.0
28.580968141555786,469.0
28.60415005683899,479.0
28.607798099517822,489.0
28.6121883392334,500.0
28.636606216430664,511.0
28.640329360961914,521.0
28.644681215286255,528.0
28.675528287887573,533.0
28.67917013168335,534.0
28.682895183563232,532.0
28.687265157699585,527.0
28.753239154815674,519.0
28.756800174713135,509.0
28.760607957839966,498.0
28.76594829559326,486.0
28.76940107345581,475.0
28.772857189178467,462.0
28.776166200637817,451.0
28.77978801727295,440.0
28.783491134643555,430.0
28.787168979644775,422.0
28.792330980300903,417.0
28.81659698486328,415.0
28.82027816772461,414.0
28.825480222702026,415.0
28.84917712211609,415.0
28.85324215888977,417.0
28.857691287994385,420.0
28.927443265914917,425.0
28.93065333366394,428.0
28.93389320373535,433.0
28.937271118164062,437.0
28.940629959106445,441.0
28.94463610649109,448.0
28.94834613800049,457.0
28.95214819908142,469.0
28.994843244552612,487.0
28.998159170150757,511.0
29.001347064971924,541.0
29.004720211029053,574.0
29.00787115097046,608.0
29.011945962905884,640.0
29.015153169631958,667.0
29.06982922554016,687.0
29.073496103286743,700.0
29.116161108016968,703.0
29.119467973709106,699.0
29.122915029525757,686.0
29.12672209739685,668.0
29.13042712211609,644.0
29.13415217399597,619.0
29.137918949127197,595.0
29.141682147979736,569.0
29.145385265350342,547.0
29.149136304855347,527.0
29.152929067611694,507.0
29.156511306762695,491.0
29.160916328430176,478.0
29.179651021957397,469.0
29.18295121192932,462.0
29.186320304870605,459.0
29.190709114074707,458.0
29.214290142059326,459.0
29.217844247817993,461.0
29.22229504585266,465.0
29.246668100357056,471.0
29.25028705596924,477.0
29.25468897819519,481.0
29.27850317955017,483.0
29.29290008544922,487.0
29.296555042266846,489.0
29.300198316574097,491.0
29.30461812019348,492.0
29.337407112121582,492.0
29.341747283935547,492.0
29.361619234085083,494.0
29.36518120765686,496.0
29.36900520324707,498.0
29.372435331344604,503.0
29.377403259277344,508.0
29.396628379821777,513.0
29.40031909942627,518.0
29.404720306396484,524.0
29.429351329803467,527.0
29.432886123657227,527.0
29.437226057052612,524.0
29.46179509162903,519.0
29.465359210968018,512.0
29.469710111618042,504.0
29.493422031402588,496.0
29.49670910835266,492.0
29.500397205352783,493.0
29.50489330291748,502.0
29.528765201568604,521.0
29.532297372817993,552.0
29.537519216537476,589.0
29.560396194458008,629.0
29.56403112411499,671.0
29.568490028381348,708.0
29.596708059310913,738.0
29.600309133529663,758.0
29.604315280914307,765.0
29.608703136444092,761.0
29.639113187789917,744.0
29.642824172973633,720.0
29.646470308303833,689.0
29.6508150100708,653.0
29.67289710044861,615.0
29.676565170288086,579.0
29.680172204971313,545.0
29.68462634086609,512.0
29.706616163253784,486.0
29.710410118103027,461.0
29.714829206466675,443.0
29.739208221435547,428.0
29.742850065231323,420.0
29.747241973876953,415.0
29.771619081497192,413.0
29.775262355804443,416.0
29.78104329109192,422.0
29.807358264923096,431.0
29.85489821434021,442.0
29.85820722579956,454.0
29.861692190170288,467.0
29.865010261535645,479.0
29.868227243423462,489.0
29.872117042541504,497.0
29.87592601776123,503.0
29.879755973815918,507.0
29.904287338256836,508.0
29.907918214797974,507.0
29.911524057388306,503.0
29.915112257003784,497.0
29.92035722732544,489.0
29.945359230041504,481.0
29.949044942855835,472.0
29.95271611213684,464.0
29.957129955291748,455.0
29.981701135635376,445.0
30.006611347198486,440.0
30.01016926765442,434.0
30.013719081878662,430.0
30.0172700881958,427.0
30.0210280418396,426.0
30.024662017822266,425.0
30.029053211212158,425.0
30.052863121032715,426.0
30.056572198867798,430.0
30.060935258865356,437.0
30.0854332447052,451.0
30.089100122451782,472.0
30.094308137893677,503.0
30.116958379745483,542.0
30.1203293800354,585.0
30.12357807159424,632.0
30.15135622024536,677.0
30.15480327606201,718.0
30.159977197647095,751.0
30.184189319610596,771.0
30.187827348709106,780.0
30.192191123962402,777.0
30.238219022750854,761.0
30.241790294647217,737.0
30.245626211166382,705.0
30.249427318572998,669.0
30.25303030014038,631.0
30.2565860748291,592.0
30.26103115081787,557.0
30.279114961624146,526.0
30.282673120498657,501.0
30.287026166915894,479.0
30.312875986099243,463.0
30.31652021408081,453.0
30.32024335861206,449.0
30.324637174606323,449.0
30.346622943878174,455.0
30.350139141082764,463.0
30.35445499420166,472.0
30.37913417816162,482.0
30.382784128189087,491.0
30.388015270233154,499.0
30.410887241363525,503.0
30.414369106292725,506.0
30.417734146118164,508.0
30.444332122802734,506.0
30.44806718826294,501.0
30.451780080795288,496.0
30.45618510246277,488.0
30.47873616218567,481.0
30.482299089431763,474.0
30.48668909072876,467.0
30.541516065597534,460.0
30.545087099075317,455.0
30.54866623878479,452.0
30.55229425430298,450.0
30.555764198303223,450.0
30.559306144714355,449.0
30.563708305358887,451.0
30.581616163253784,454.0
30.585273265838623,458.0
30.589648246765137,463.0
30.641862154006958,469.0
30.64554524421692,479.0
30.64924907684326,491.0
30.652973175048828,511.0
30.656740188598633,537.0
30.66045117378235,569.0
30.664016246795654,604.0
30.668406009674072,643.0
30.686665296554565,679.0
30.690356969833374,711.0
30.694703102111816,734.0
30.718565225601196,746.0
30.72189998626709,748.0
30.7263023853302,742.0
30.751647233963013,726.0
30.755282163619995,703.0
30.7596652507782,673.0
30.784133195877075,641.0
30.7878520488739,609.0
30.79221820831299,579.0
30.838114023208618,552.0
30.841771125793457,528.0
30.845529079437256,509.0
30.849257946014404,494.0
30.852784156799316,479.0
30.857174158096313,469.0
30.87535524368286,459.0
30.875540256500244,455.0
30.879090309143066,453.0
30.883507251739502,454.0
30.908003091812134,457.0
30.9114511013031,462.0
30.914716243743896,470.0
30.94041419029236,479.0
30.944090127944946,489.0
30.94849729537964,499.0
30.972931146621704,507.0
30.976583242416382,515.0
30.980367183685303,520.0
30.985644102096558,524.0
31.01205015182495,525.0
31.015387296676636,524.0
31.018815994262695,521.0
31.087473154067993,519.0
31.090736150741577,515.0
31.094192266464233,511.0
31.097697019577026,507.0
31.101033926010132,503.0
31.1043860912323,499.0
31.107818126678467,497.0
31.11161231994629,496.0
31.138195276260376,494.0
31.141685962677002,492.0
31.145336151123047,489.0
31.148988246917725,485.0
31.152510166168213,482.0
31.156883239746094,480.0
31.175528287887573,482.0
31.179083108901978,493.0
31.183378219604492,512.0
31.20802116394043,538.0
31.21169924736023,574.0
31.216028213500977,613.0
31.240508317947388,655.0
31.24419617652893,694.0
31.248589038848877,728.0
31.2818500995636,751.0
31.285532236099243,764.0
31.289191246032715,764.0
31.29277801513672,755.0
31.297375202178955,736.0
31.317997217178345,708.0
31.3215811252594,678.0
31.32485818862915,644.0
31.350459098815918,610.0
31.354060173034668,577.0
31.358447074890137,545.0
31.382951259613037,516.0
31.386569261550903,493.0
31.390191078186035,471.0
31.394578218460083,454.0
31.438095092773438,441.0
31.441830158233643,433.0
31.44591522216797,428.0
31.449477195739746,427.0
31.453045129776,431.0
31.457467079162598,435.0
31.481730222702026,444.0
31.485289335250854,454.0
31.489666223526,465.0
31.51414704322815,475.0
31.517776250839233,486.0
31.521461009979248,494.0
31.525893211364746,499.0
31.54792618751526,504.0
31.55157709121704,506.0
31.555989027023315,505.0
31.580374002456665,503.0
31.584094285964966,499.0
31.588560104370117,494.0
31.612941026687622,486.0
31.616544008255005,479.0
31.62018609046936,471.0
31.624548196792603,463.0
31.683579206466675,454.0
31.686954021453857,449.0
31.69043207168579,443.0
31.693726301193237,436.0
31.697272062301636,431.0
31.70098614692688,427.0
31.70430612564087,422.0
31.743694067001343,421.0
31.746965169906616,423.0
31.75067901611328,431.0
31.75425934791565,445.0
31.75777006149292,466.0
31.762126207351685,496.0
31.78165602684021,534.0
31.78528928756714,575.0
31.78898525238037,618.0
31.79413604736328,656.0
31.819122314453125,688.0
31.82267427444458,711.0
31.827048301696777,722.0
31.851824283599854,720.0
31.85540199279785,708.0
31.859775066375732,687.0
31.88439393043518,658.0
31.888002157211304,625.0
31.891744136810303,592.0
31.896995067596436,559.0
31.921648263931274,527.0
31.92538595199585,499.0
31.92919111251831,474.0
31.933582067489624,451.0
31.986133098602295,432.0
31.98945713043213,417.0
31.99293613433838,406.0
31.99634313583374,400.0
31.99967622756958,399.0
32.00309133529663,401.0
32.0448203086853,406.0
32.048235177993774,416.0
32.05166721343994,428.0
32.05558395385742,443.0
32.05918216705322,458.0
32.06431007385254,473.0
32.08290719985962,486.0
32.08664011955261,497.0
32.09103727340698,507.0
32.11546015739441,514.0
32.1190299987793,519.0
32.12342715263367,521.0
32.15466117858887,520.0
32.15796518325806,516.0
32.1615731716156,510.0
32.16511631011963,503.0
32.16943001747131,496.0
32.19041299819946,488.0
32.19411301612854,480.0
32.19774103164673,471.0
32.20213603973389,462.0
32.22433114051819,455.0
32.22793126106262,450.0
32.23230314254761,444.0
32.2559711933136,439.0
32.25939726829529,437.0
32.26272511482239,437.0
32.35949206352234,439.0
32.363054037094116,449.0
32.36673712730408,467.0
32.37047719955444,495.0
32.37421417236328,527.0
32.37828207015991,568.0
32.38207006454468,612.0
32.38578820228577,656.0
32.38942623138428,695.0
32.39316916465759,725.0
32.39697813987732,745.0
32.40056920051575,752.0
32.40411901473999,748.0
32.4093120098114,734.0
32.426634073257446,711.0
32.430171251297,683.0
32.43542122840881,648.0
32.458447217941284,613.0
32.46191930770874,578.0
32.46634817123413,543.0
32.491844177246094,511.0
32.49539136886597,484.0
32.50054717063904,461.0
32.52424335479736,441.0
32.52788305282593,428.0
32.53225922584534,419.0
32.60494613647461,416.0
32.60822033882141,418.0
32.61174702644348,424.0
32.615018129348755,433.0
32.618242025375366,447.0
32.62156009674072,462.0
32.65855407714844,477.0
32.66201424598694,491.0
32.66544818878174,503.0
32.66893815994263,512.0
32.672566175460815,517.0
32.67608332633972,520.0
32.67971611022949,520.0
32.683239221572876,517.0
32.686779260635376,512.0
32.6911461353302,504.0
32.70913314819336,496.0
32.712886095047,489.0
32.717212200164795,483.0
32.74168515205383,476.0
32.74540424346924,469.0
32.74988317489624,464.0
32.774126052856445,460.0
32.77777314186096,455.0
32.78150820732117,452.0
32.785847187042236,449.0
32.80788016319275,447.0
32.811400175094604,447.0
32.815784215927124,448.0
32.841246366500854,451.0
32.844823122024536,459.0
32.84833097457886,476.0
32.85356616973877,499.0
32.87466216087341,530.0
32.8781042098999,569.0
32.88154125213623,612.0
32.93692111968994,655.0
32.94058918952942,697.0
32.94444417953491,731.0
32.948461055755615,755.0
32.952091217041016,768.0
32.9556610584259,771.0
32.959222078323364,762.0
32.981667041778564,744.0
32.98534297943115,720.0
32.989039182662964,691.0
32.99341630935669,661.0
33.01546311378479,630.0
33.019042015075684,602.0
33.023468017578125,576.0
33.048012018203735,553.0
33.05164432525635,534.0
33.05598735809326,516.0
33.08049201965332,500.0
33.08413815498352,487.0
33.08848714828491,475.0
33.11295509338379,465.0
33.11658430099487,458.0
33.12096929550171,452.0
33.14548206329346,449.0
33.1490752696991,450.0
33.15264916419983,454.0
33.156960010528564,459.0
33.17852735519409,467.0
33.20168328285217,476.0
33.205406188964844,483.0
33.20904326438904,490.0
33.212406158447266,495.0
33.216166257858276,499.0
33.24213218688965,501.0
33.24569010734558,500.0
33.24923229217529,499.0
33.253645181655884,495.0
33.27595901489258,492.0
33.279776096343994,488.0
33.28552222251892,484.0
33.28996419906616,480.0
33.31750416755676,475.0
33.3213632106781,472.0
33.32581114768982,468.0
33.33038830757141,464.0
33.35797309875488,462.0
33.36162519454956,460.0
33.36597919464111,457.0
33.39047598838806,455.0
33.39413237571716,453.0
33.39855623245239,449.0
33.42293405532837,448.0
33.42659020423889,449.0
33.43022632598877,457.0
33.435442209243774,470.0
33.456698179244995,493.0
33.46036410331726,525.0
33.46472215652466,564.0
33.524914264678955,608.0
33.52820611000061,656.0
33.53208923339844,701.0
33.53611421585083,738.0
33.53988027572632,765.0
33.60987114906311,779.0
33.61004114151001,780.0
33.61019802093506,770.0
33.61037516593933,751.0
33.610538959503174,724.0
33.610724210739136,691.0
33.610881090164185,657.0
33.6137273311615,623.0
33.617335081100464,590.0
33.62169122695923,560.0
33.64547038078308,533.0
33.64564299583435,510.0
33.64916706085205,490.0
33.65353608131409,472.0
33.67709422111511,457.0
33.68091630935669,446.0
33.68458318710327,436.0
33.6954870223999,431.0
33.69996118545532,427.0
33.72685527801514,426.0
33.730409383773804,428.0
33.73474621772766,432.0
33.759196281433105,439.0
33.76286721229553,448.0
33.768073320388794,456.0
33.79225492477417,466.0
33.79554319381714,478.0
33.79901719093323,489.0
33.891597032547,500.0
33.9448881149292,508.0
33.94820809364319,514.0
33.951438188552856,517.0
33.954777240753174,518.0
33.95818519592285,515.0
33.96214318275452,510.0
33.96599817276001,504.0
33.96978211402893,496.0
34.016295194625854,488.0
34.0194411277771,478.0
34.02262806892395,469.0
34.02600598335266,460.0
34.029380083084106,450.0
34.03341221809387,440.0
34.037177085876465,431.0
34.04097819328308,422.0
34.0798180103302,417.0
34.0832462310791,414.0
34.086666107177734,412.0
34.08997917175293,410.0
34.093242168426514,409.0
34.09652614593506,412.0
34.10096621513367,416.0
34.104196071624756,422.0
34.107431173324585,430.0
34.1360650062561,441.0
34.140565156936646,455.0
34.1442711353302,473.0
34.14796018600464,499.0
34.15187621116638,534.0
34.15551018714905,577.0
34.159205198287964,627.0
34.16293716430664,681.0
34.16669011116028,732.0
34.170433044433594,775.0
34.17398715019226,808.0
34.17838001251221,827.0
34.19716024398804,831.0
34.20062613487244,822.0
34.204769134521484,801.0
34.23140811920166,769.0
34.23480820655823,731.0
34.23916530609131,690.0
34.262914180755615,648.0
34.26655626296997,607.0
34.27022409439087,568.0
34.274625062942505,532.0
34.30422616004944,503.0
34.307982206344604,476.0
34.31173014640808,456.0
34.31610417366028,440.0
34.337881088256836,429.0
34.34156322479248,423.0
34.34591007232666,422.0
34.37046718597412,427.0
34.37407898902893,436.0
34.37846398353577,448.0
34.40216422080994,460.0
34.40554332733154,473.0
34.40880823135376,486.0
34.41321420669556,497.0
34.445624113082886,504.0
34.44918918609619,510.0
34.45290017127991,511.0
34.45732402801514,509.0
34.48175835609436,504.0
34.485310316085815,497.0
34.488988161087036,487.0
34.49335336685181,476.0
34.515432357788086,465.0
34.51892828941345,455.0
34.52330231666565,446.0
34.54797720909119,439.0
34.55163025856018,434.0
34.55603814125061,431.0
34.580448150634766,430.0
34.584105253219604,430.0
34.588473081588745,432.0
34.612916231155396,434.0
34.61668825149536,437.0
34.62104606628418,441.0
34.645419120788574,441.0
34.649094104766846,441.0
34.65274906158447,440.0
34.65713620185852,439.0
34.67918825149536,438.0
34.682828187942505,436.0
34.687156200408936,434.0
34.749993324279785,432.0
34.753265142440796,428.0
34.756675243377686,424.0
34.75998830795288,420.0
34.7634642124176,417.0
34.76728820800781,415.0
34.771021127700806,414.0
34.77487826347351,415.0
34.81130528450012,422.0
34.81452417373657,435.0
34.81793713569641,455.0
34.82167911529541,482.0
34.825234174728394,518.0
34.82957911491394,557.0
34.849173069000244,599.0
34.852548122406006,639.0
34.855908155441284,674.0
34.88097524642944,700.0
34.8842339515686,716.0
34.88839411735535,720.0
34.917317152023315,715.0
34.93718123435974,702.0
34.94052028656006,682.0
34.943597078323364,656.0
34.947076082229614,627.0
34.95031404495239,599.0
34.95351505279541,569.0
35.00282311439514,543.0
35.00582718849182,519.0
35.00911521911621,498.0
35.01241612434387,479.0
35.015775203704834,460.0
35.01903939247131,447.0
35.10564827919006,438.0
35.14821910858154,435.0
35.15190029144287,434.0
35.15565013885498,435.0
35.15949320793152,438.0
35.163230180740356,443.0
35.16696810722351,449.0
35.17073321342468,455.0
35.174408197402954,461.0
35.17822313308716,467.0
35.18199324607849,471.0
35.18572211265564,475.0
35.189507246017456,476.0
35.19351816177368,477.0
35.19720506668091,475.0
35.20077896118164,472.0
35.204405069351196,469.0
35.20877003669739,465.0
35.22685718536377,460.0
35.23033905029297,457.0
35.2340202331543,454.0
35.23923206329346,451.0
35.260414361953735,450.0
35.26407599449158,449.0
35.269283056259155,449.0
35.29296612739563,449.0
35.29660105705261,450.0
35.30098819732666,450.0
35.37123417854309,448.0
35.3745231628418,449.0
35.37797236442566,448.0
35.381277322769165,447.0
35.38146615028381,444.0
35.38478422164917,443.0
35.388445138931274,442.0
35.392213106155396,443.0
35.39607501029968,446.0
35.42937922477722,450.0
35.43310618400574,459.0
35.436909198760986,475.0
35.44056701660156,497.0
35.44417715072632,527.0
35.448620080947876,565.0
35.46664500236511,607.0
35.47031116485596,648.0
35.47466421127319,686.0
35.49914813041687,716.0
35.502758264541626,739.0
35.50731015205383,749.0
35.510956048965454,749.0
35.5412220954895,738.0
35.54481315612793,718.0
35.548524141311646,691.0
35.552884340286255,660.0
35.57547116279602,629.0
35.57905101776123,596.0
35.583433389663696,566.0
35.63744926452637,536.0
35.64081621170044,509.0
35.644187211990356,485.0
35.64791393280029,464.0
35.65148615837097,447.0
35.655861139297485,434.0
35.66170310974121,422.0
35.66705012321472,416.0
35.692986249923706,414.0
35.69663405418396,416.0
35.7010281085968,421.0
35.7248101234436,428.0
35.72844433784485,438.0
35.7322633266449,448.0
35.73672819137573,457.0
35.76669907569885,467.0
35.77034115791321,475.0
35.770501136779785,480.0
35.77470517158508,484.0
35.79920411109924,487.0
35.80290198326111,488.0
35.80726337432861,487.0
35.831231117248535,485.0
35.842955112457275,482.0
35.846590995788574,479.0
35.85020732879639,474.0
35.85348129272461,471.0
35.884133100509644,467.0
35.88703632354736,465.0
35.890284061431885,464.0
35.89473509788513,463.0
35.94129419326782,463.0
35.94456720352173,462.0
35.998653173446655,463.0
36.00200819969177,465.0
36.00517296791077,467.0
36.00852036476135,468.0
36.01196312904358,470.0
36.01596736907959,472.0
36.01971101760864,473.0
36.023436069488525,472.0
36.06625008583069,474.0
36.069833278656006,477.0
36.082128286361694,487.0
36.08545422554016,501.0
36.088768005371094,522.0
36.09205412864685,550.0
36.095351219177246,583.0
36.09970021247864,620.0
36.10348916053772,656.0
36.107333183288574,689.0
36.13367700576782,716.0
36.137858152389526,732.0
36.142232179641724,740.0
36.17247009277344,737.0
36.17265200614929,724.0
36.17281198501587,703.0
36.17695903778076,675.0
36.18139910697937,645.0
36.237510204315186,611.0
36.24113917350769,578.0
36.2484290599823,549.0
36.25184631347656,521.0
36.255351066589355,497.0
36.25863027572632,478.0
36.262285232543945,460.0
36.2663471698761,447.0
36.27073621749878,435.0
36.28921127319336,428.0
36.2929162979126,424.0
36.297534227371216,426.0
36.32171010971069,430.0
36.325812339782715,436.0
36.32952809333801,445.0
36.33399820327759,455.0
36.360435247421265,467.0
36.36407399177551,478.0
36.36846733093262,489.0
36.401573181152344,498.0
36.40516519546509,504.0
36.408864974975586,509.0
36.412405014038086,510.0
36.416834115982056,508.0
36.43683934211731,504.0
36.44197916984558,499.0
36.445250034332275,493.0
36.46944522857666,486.0
36.47293019294739,480.0
36.4772572517395,473.0
36.50175905227661,468.0
36.50558519363403,463.0
36.510080099105835,458.0
36.541014194488525,454.0
36.54435706138611,451.0
36.54845309257507,448.0
36.552284240722656,447.0
36.555830001831055,444.0
36.55920934677124,444.0
36.588781118392944,442.0
36.592350244522095,442.0
36.59676814079285,441.0
36.62041616439819,441.0
36.624157190322876,442.0
36.6277642250061,446.0
36.63215732574463,451.0
36.65795135498047,462.0
36.661588191986084,478.0
36.66594099998474,504.0
36.69042611122131,537.0
36.69414234161377,578.0
36.69838619232178,623.0
36.70274019241333,669.0
36.72679400444031,712.0
36.730366945266724,748.0
36.73477220535278,773.0
36.75854420661926,785.0
36.76193118095398,785.0
36.76724314689636,773.0
36.791699171066284,751.0
36.79539918899536,723.0
36.79981732368469,688.0
36.838194131851196,652.0
36.8418390750885,614.0
36.84552502632141,579.0
36.849361181259155,546.0
36.85260319709778,516.0
36.85588026046753,491.0
36.90636205673218,470.0
36.90947127342224,454.0
36.91272497177124,441.0
36.91599416732788,433.0
36.919302225112915,427.0
36.923490047454834,425.0
36.967419147491455,425.0
37.02047824859619,431.0
37.07247829437256,439.0
37.075937032699585,450.0
37.07959508895874,461.0
37.115631103515625,473.0
37.11937928199768,483.0
37.12322926521301,494.0
37.12676405906677,502.0
37.130351066589355,510.0
37.135122299194336,513.0
37.147916078567505,515.0
37.151724100112915,514.0
37.155497312545776,511.0
37.158788204193115,505.0
37.162503242492676,499.0
37.16638112068176,492.0
37.17219924926758,485.0
37.175403118133545,478.0
37.179121255874634,473.0
37.18288993835449,467.0
37.18659710884094,463.0
37.19033598899841,459.0
37.194077253341675,457.0
37.197859048843384,455.0
37.20166516304016,454.0
37.20525527000427,454.0
37.208853006362915,454.0
37.21331810951233,454.0
37.231672048568726,454.0
37.235358238220215,454.0
37.23974013328552,454.0
37.26347517967224,454.0
37.26694130897522,457.0
37.267107248306274,464.0
37.27099633216858,477.0
37.27760624885559,501.0
37.30682921409607,535.0
37.31040000915527,578.0
37.31472992897034,625.0
37.339184284210205,675.0
37.34286427497864,722.0
37.347262382507324,763.0
37.374184370040894,793.0
37.377896308898926,812.0
37.38148522377014,816.0
37.385892152786255,807.0
37.43940615653992,787.0
37.443106174468994,758.0
37.446874141693115,723.0
37.450613021850586,685.0
37.45415806770325,647.0
37.45850920677185,610.0
37.47831702232361,576.0
37.48168706893921,544.0
37.48522615432739,519.0
37.488792181015015,496.0
37.49315404891968,477.0
37.51421117782593,462.0
37.51791000366211,449.0
37.523603200912476,440.0
37.54671001434326,435.0
37.55019426345825,435.0
37.554524183273315,438.0
37.57915639877319,443.0
37.58286118507385,451.0
37.587215185165405,461.0
37.61171197891235,472.0
37.61539626121521,482.0
37.620617389678955,493.0
37.64443898200989,502.0
37.64794325828552,510.0
37.65230631828308,515.0
37.68097519874573,518.0
37.68453121185303,516.0
37.688114166259766,514.0
37.691630125045776,509.0
37.69601821899414,503.0
37.73705434799194,496.0
37.74061918258667,488.0
37.74429225921631,481.0
37.747946977615356,473.0
37.75227427482605,466.0
37.772282123565674,460.0
37.77607822418213,455.0
37.78453612327576,450.0
37.78780913352966,446.0
37.791086196899414,443.0
37.81791424751282,442.0
37.82146215438843,443.0
37.8258581161499,444.0
37.850457191467285,442.0
37.854119300842285,441.0
37.858490228652954,442.0
37.88224506378174,441.0
37.88597512245178,441.0
37.89122414588928,443.0
37.915489196777344,448.0
37.91909122467041,459.0
37.92279028892517,479.0
37.92717003822327,508.0
37.949212312698364,545.0
37.95288014411926,593.0
37.95730423927307,645.0
37.98901128768921,699.0
37.99257802963257,748.0
37.99703812599182,789.0
38.000725984573364,817.0
38.00553822517395,831.0
38.03724002838135,833.0
38.040645122528076,821.0
38.04427695274353,798.0
38.049432039260864,767.0
38.07298707962036,732.0
38.07659125328064,691.0
38.07989311218262,654.0
38.10455322265625,619.0
38.1079843044281,587.0
38.11166429519653,557.0
38.116016149520874,530.0
38.139278173446655,508.0
38.14290714263916,489.0
38.147263050079346,473.0
38.17169404029846,459.0
38.17534899711609,448.0
38.180713176727295,439.0
38.18407607078552,435.0
38.2054500579834,435.0
38.20910620689392,437.0
38.2135910987854,441.0
38.23706007003784,447.0
38.24034404754639,455.0
38.24375510215759,465.0
38.270493268966675,474.0
38.27413606643677,484.0
38.2785210609436,492.0
38.34193825721741,499.0
38.345638275146484,505.0
38.34949517250061,508.0
38.3530752658844,509.0
38.35660910606384,507.0
38.36175513267517,503.0
38.365413188934326,498.0
38.369378089904785,492.0
38.37304615974426,484.0
38.37743616104126,477.0
38.40043020248413,470.0
38.40412616729736,465.0
38.40858435630798,460.0
38.43298316001892,455.0
38.43657326698303,451.0
38.44024324417114,449.0
38.44544315338135,446.0
38.466681241989136,443.0
38.47023940086365,441.0
38.47461128234863,440.0
38.5042450428009,439.0
38.50794816017151,440.0
38.51168203353882,440.0
38.516064167022705,440.0
38.53919315338135,440.0
38.542816162109375,441.0
38.54652214050293,443.0
38.55095911026001,446.0
38.572957277297974,452.0
38.576643228530884,463.0
38.58179831504822,482.0
38.63817024230957,511.0
38.64184021949768,550.0
38.645528078079224,595.0
38.64926719665527,647.0
38.65304231643677,696.0
38.656639099121094,741.0
38.661182165145874,777.0
38.66923522949219,803.0
38.673784017562866,814.0
38.70495820045471,812.0
38.7081983089447,798.0
38.71157503128052,774.0
38.71645522117615,743.0
38.74045419692993,705.0
38.744436264038086,668.0
38.748332023620605,630.0
38.7527391910553,593.0
38.777963161468506,559.0
38.78165030479431,530.0
38.78595519065857,506.0
38.81043314933777,486.0
38.8145170211792,468.0
38.8182110786438,454.0
38.8224823474884,443.0
38.844319343566895,435.0
38.84789705276489,431.0
38.85228705406189,431.0
38.876702308654785,432.0
38.880354166030884,439.0
38.88477420806885,447.0
38.96201229095459,455.0
38.965415239334106,465.0
38.96909523010254,475.0
38.9729061126709,487.0
38.976635217666626,495.0
38.98037910461426,503.0
38.98411703109741,508.0
38.987868309020996,511.0
38.991515159606934,510.0
38.99502110481262,509.0
38.99919319152832,505.0
39.01842927932739,500.0
39.02189016342163,495.0
39.02533507347107,489.0
39.072376012802124,482.0
39.07618522644043,475.0
39.11062502861023,467.0
39.11436629295349,461.0
39.118234157562256,455.0
39.12210726737976,450.0
39.125768184661865,447.0
39.12950015068054,443.0
39.13316512107849,441.0
39.13674807548523,440.0
39.14110517501831,440.0
39.15916705131531,441.0
39.16269111633301,442.0
39.16701412200928,444.0
39.19168734550476,444.0
39.195380210876465,446.0
39.199042081832886,447.0
39.204283237457275,449.0
39.238333225250244,455.0
39.241812229156494,467.0
39.24550223350525,489.0
39.249234199523926,520.0
39.253666162490845,560.0
39.2754271030426,607.0
39.27909016609192,655.0
39.28350114822388,703.0
39.30713510513306,745.0
39.31048321723938,777.0
39.31384015083313,798.0
39.35989809036255,805.0
39.36326026916504,801.0
39.36665225028992,785.0
39.36991000175476,761.0
39.373204946517944,729.0
39.41617727279663,695.0
39.419504165649414,659.0
39.422953367233276,624.0
39.42668628692627,591.0
39.43042826652527,560.0
39.433990240097046,532.0
39.43837809562683,509.0
39.457988262176514,491.0
39.46164608001709,475.0
39.46598029136658,460.0
39.49292802810669,447.0
39.496599197387695,438.0
39.500277042388916,432.0
39.504661083221436,429.0
39.53688335418701,432.0
39.540473222732544,436.0
39.544185161590576,444.0
39.54859113693237,454.0
39.57167625427246,465.0
39.575215101242065,476.0
39.579594135284424,487.0
39.60423803329468,496.0
39.60784411430359,503.0
39.611560344696045,508.0
39.614806175231934,509.0
39.65355920791626,510.0
39.65686225891113,510.0
39.660354137420654,507.0
39.66368818283081,501.0
39.668060302734375,494.0
39.69041728973389,487.0
39.69414925575256,481.0
39.69930124282837,474.0
39.72812795639038,467.0
39.73161602020264,462.0
39.73526406288147,457.0
39.73964524269104,453.0
39.761744260787964,449.0
39.76520609855652,445.0
39.76960825920105,442.0
39.79425406455994,441.0
39.79791212081909,440.0
39.802311182022095,440.0
39.837101221084595,440.0
39.84045624732971,441.0
39.8441002368927,442.0
39.84766721725464,443.0
39.85128116607666,444.0
39.85559415817261,444.0
39.874189138412476,447.0
39.877745151519775,454.0
39.882190227508545,467.0
39.90691924095154,491.0
39.91047501564026,523.0
39.914788246154785,565.0
39.94267916679382,614.0
39.945810317993164,665.0
39.94920325279236,713.0
39.95251822471619,756.0
39.99742817878723,790.0
40.00088715553284,811.0
40.004319190979004,819.0
40.00779628753662,816.0
40.01107716560364,801.0
40.038376331329346,777.0
40.041688203811646,747.0
40.044936180114746,713.0
40.04849100112915,677.0
40.0528781414032,641.0
40.076720237731934,608.0
40.08077001571655,577.0
40.08518600463867,550.0
40.13816499710083,527.0
40.14194107055664,509.0
40.14573121070862,491.0
40.14939618110657,474.0
40.152981996536255,462.0
40.15736699104309,451.0
40.175435066223145,441.0
40.17915225028992,436.0
40.18278408050537,435.0
40.187156200408936,436.0
40.2091760635376,441.0
40.21301293373108,448.0
40.21649217605591,457.0
40.24353218078613,466.0
40.246761322021484,476.0
40.250150203704834,484.0
40.25344729423523,492.0
40.27797031402588,499.0
40.28165316581726,503.0
40.2860541343689,505.0
40.3104612827301,505.0
40.31408929824829,503.0
40.31847333908081,499.0
40.343048334121704,493.0
40.3465850353241,485.0
40.35026025772095,479.0
40.35465598106384,472.0
40.37671113014221,467.0
40.380396127700806,460.0
40.384759187698364,456.0
40.443363189697266,453.0
40.44688630104065,450.0
40.45064425468445,447.0
40.4543731212616,445.0
40.457911014556885,444.0
40.4622802734375,444.0
40.48045897483826,444.0
40.48421931266785,442.0
40.487935066223145,441.0
40.49151825904846,441.0
40.49587297439575,441.0
40.51542615890503,442.0
40.519132137298584,444.0
40.52355122566223,448.0
40.54696011543274,455.0
40.550371170043945,467.0
40.55380129814148,489.0
40.59869718551636,516.0
40.60201120376587,557.0
40.60573410987854,603.0
40.609079122543335,653.0
40.61356019973755,701.0
40.647343158721924,744.0
40.65074920654297,780.0
40.65412521362305,803.0
40.65775203704834,813.0
40.6621413230896,811.0
40.68421816825867,797.0
40.68785214424133,774.0
40.691532135009766,744.0
40.695924282073975,708.0
40.737425327301025,672.0
40.740668296813965,636.0
40.74413323402405,603.0
40.7477490901947,574.0
40.751028299331665,549.0
40.77419710159302,527.0
40.7779381275177,508.0
40.781511306762695,491.0
40.78586006164551,475.0
40.807937145233154,462.0
40.8114972114563,451.0
40.81600213050842,444.0
40.8395881652832,438.0
40.84284806251526,436.0
40.847270250320435,439.0
40.88127613067627,444.0
40.928714990615845,452.0
40.932048082351685,461.0
40.935497999191284,469.0
40.93877601623535,478.0
40.942036390304565,485.0
40.94598412513733,492.0
40.94978618621826,499.0
40.95439100265503,503.0
40.95815825462341,504.0
40.96183705329895,504.0
40.96623420715332,503.0
40.9879732131958,500.0
40.99165630340576,496.0
40.99603819847107,489.0
41.03690814971924,481.0
41.04064631462097,474.0
41.04405927658081,467.0
41.047638177871704,460.0
41.0512330532074,454.0
41.054633378982544,449.0
41.083529233932495,445.0
41.08688926696777,444.0
41.09055733680725,442.0
41.09491205215454,441.0
41.1192672252655,440.0
41.122886180877686,440.0
41.12655425071716,440.0
41.13168931007385,442.0
41.1610050201416,442.0
41.16438817977905,443.0
41.16813898086548,444.0
41.17329525947571,446.0
41.17927598953247,447.0
41.20052719116211,448.0
41.20506429672241,453.0
41.23179817199707,462.0
41.23541498184204,480.0
41.23980712890625,506.0
41.26421308517456,540.0
41.26788830757141,583.0
41.27153825759888,632.0
41.27591395378113,682.0
41.29805898666382,730.0
41.30171537399292,770.0
41.30526900291443,801.0
41.309683322906494,818.0
41.338423013687134,823.0
41.34264802932739,813.0
41.346997022628784,793.0
41.370723247528076,765.0
41.3740131855011,731.0
41.37768507003784,694.0
41.381962060928345,656.0
41.40432524681091,621.0
41.40794324874878,589.0
41.412360191345215,559.0
41.4367139339447,534.0
41.440256118774414,513.0
41.44468116760254,496.0
41.5215322971344,480.0
41.52491021156311,468.0
41.528741121292114,458.0
41.56950497627258,451.0
41.57315135002136,448.0
41.576903343200684,448.0
41.58080506324768,450.0
41.584490060806274,455.0
41.588233947753906,462.0
41.592005252838135,471.0
41.59575700759888,482.0
41.59948205947876,492.0
41.60323929786682,500.0
41.607155323028564,507.0
41.610735177993774,512.0
41.61550736427307,512.0
41.64046001434326,512.0
41.64415621757507,511.0
41.647786140441895,507.0
41.652148962020874,500.0
41.67421793937683,494.0
41.67788815498352,486.0
41.68240833282471,479.0
41.706719398498535,472.0
41.710505962371826,464.0
41.71411204338074,458.0
41.718443155288696,453.0
41.740472078323364,449.0
41.74419713020325,446.0
41.74778127670288,444.0
41.75210523605347,442.0
41.77454209327698,442.0
41.77791428565979,443.0
41.7811541557312,443.0
41.80797719955444,444.0
41.81159234046936,446.0
41.81682515144348,448.0
41.84056234359741,450.0
41.84423017501831,451.0
41.848605155944824,452.0
41.87222504615784,453.0
41.87566018104553,454.0
41.880916357040405,453.0
41.939672231674194,453.0
41.94318413734436,455.0
41.94695711135864,461.0
41.95062518119812,471.0
41.95433807373047,489.0
41.958073139190674,516.0
41.961883306503296,552.0
41.965949296951294,597.0
41.969253063201904,647.0
41.98796796798706,696.0
41.99165225028992,742.0
41.996013164520264,781.0
42.02069401741028,806.0
42.02415728569031,819.0
42.02781796455383,818.0
42.03216004371643,805.0
42.054243087768555,783.0
42.05787920951843,753.0
42.0622661113739,718.0
42.08591818809509,682.0
42.0892231464386,646.0
42.092496156692505,612.0
42.127610206604004,582.0
42.130757093429565,555.0
42.133979082107544,530.0
42.13720703125,508.0
42.18867111206055,490.0
42.18968224525452,475.0
42.19291019439697,462.0
42.19611716270447,452.0
42.19944214820862,444.0
42.202627182006836,438.0
42.20586800575256,436.0
42.25637125968933,438.0
42.25992822647095,442.0
42.30876326560974,449.0
42.31202721595764,457.0
42.31542611122131,465.0
42.3186571598053,474.0
42.32206630706787,480.0
42.32544922828674,487.0
42.328713178634644,493.0
42.33214831352234,496.0
42.335976362228394,497.0
42.339699268341064,495.0
42.343526124954224,492.0
42.34927010536194,487.0
42.35390114784241,482.0
42.379730224609375,475.0
42.383028984069824,468.0
42.38653802871704,461.0
42.39104199409485,454.0
42.39600610733032,448.0
42.42472434043884,442.0
42.42800307273865,438.0
42.43230724334717,435.0
42.45676803588867,433.0
42.46045207977295,432.0
42.46481919288635,431.0
42.48858118057251,431.0
42.49198532104492,431.0
42.49649405479431,431.0
42.53574299812317,433.0
42.539391040802,435.0
42.54326605796814,436.0
42.54689812660217,438.0
42.551228284835815,439.0
42.57296919822693,439.0
42.57664608955383,439.0
42.58015513420105,438.0
42.6054482460022,437.0
42.609543323516846,440.0
42.613115310668945,445.0
42.61742901802063,455.0
42.63927721977234,473.0
42.64293622970581,503.0
42.64735722541809,540.0
42.672983169555664,584.0
42.67669224739075,632.0
42.68028426170349,679.0
42.68361020088196,721.0
42.70582723617554,755.0
42.70965313911438,778.0
42.71477031707764,788.0
42.73938608169556,785.0
42.742942333221436,770.0
42.74733018875122,747.0
42.77183508872986,715.0
42.775458097457886,679.0
42.77986025810242,643.0
42.804248094558716,606.0
42.80831003189087,572.0
42.811867237091064,540.0
42.81634521484375,512.0
42.843043088912964,488.0
42.84661912918091,468.0
42.85025715827942,452.0
42.85480213165283,440.0
42.87673616409302,430.0
42.8803870677948,425.0
42.883981227874756,423.0
42.90924119949341,424.0
42.912896156311035,427.0
42.91736125946045,433.0
42.941707134246826,441.0
42.9452862739563,452.0
42.95044827461243,464.0
42.97423815727234,475.0
42.97797226905823,486.0
42.98236012458801,494.0
43.00966024398804,499.0
43.012954235076904,503.0
43.016624212265015,504.0
43.02019715309143,505.0
43.02452206611633,503.0
43.044581174850464,500.0
43.0478892326355,496.0
43.05235815048218,490.0
43.07802605628967,484.0
43.081682205200195,479.0
43.08606004714966,473.0
43.13920831680298,468.0
43.142733097076416,464.0
43.14643931388855,460.0
43.15000319480896,456.0
43.1535382270813,453.0
43.15790319442749,451.0
43.175464153289795,449.0
43.17914128303528,448.0
43.1828031539917,447.0
43.18719220161438,447.0
43.21061301231384,448.0
43.21418118476868,447.0
43.218592166900635,447.0
43.24299621582031,446.0
43.24667024612427,448.0
43.25029397010803,451.0
43.25476026535034,456.0
43.27585506439209,469.0
43.27901315689087,491.0
43.2824501991272,521.0
43.30950617790222,561.0
43.31299304962158,608.0
43.317341327667236,656.0
43.34171533584595,703.0
43.34545922279358,742.0
43.34979724884033,771.0
43.37423610687256,789.0
43.377894163131714,794.0
43.38156533241272,785.0
43.38595509529114,765.0
43.44332528114319,736.0
43.44690203666687,703.0
43.45077300071716,666.0
43.4543890953064,629.0
43.4579861164093,593.0
43.46267819404602,560.0
43.47421717643738,529.0
43.47789716720581,502.0
43.48155903816223,480.0
43.485934257507324,461.0
43.50743818283081,446.0
43.51080322265625,433.0
43.51486325263977,426.0
43.54052209854126,421.0
43.544130086898804,421.0
43.54848098754883,425.0
43.57295632362366,430.0
43.576590061187744,438.0
43.58093810081482,449.0
43.6048321723938,460.0
43.60866832733154,473.0
43.61704421043396,486.0
43.6203932762146,496.0
43.62361431121826,505.0
43.65046715736389,511.0
43.65415024757385,514.0
43.65935015678406,514.0
43.68296217918396,512.0
43.6866979598999,508.0
43.6902961730957,503.0
43.69486427307129,496.0
43.701786279678345,487.0
43.70657515525818,479.0
43.738335371017456,471.0
43.74190902709961,464.0
43.74640727043152,457.0
43.7598671913147,452.0
43.76387310028076,447.0
43.79195427894592,443.0
43.79547619819641,441.0
43.79987716674805,440.0
43.82423400878906,440.0
43.82790398597717,442.0
43.83151936531067,444.0
43.8367600440979,444.0
43.85809016227722,444.0
43.86216425895691,445.0
43.86578822135925,447.0
43.87018537521362,446.0
43.8930721282959,447.0
43.89663529396057,448.0
43.900978326797485,448.0
43.91057300567627,448.0
43.93924927711487,449.0
43.94361114501953,451.0
43.94731521606445,457.0
43.951730251312256,468.0
43.97425103187561,489.0
43.97786211967468,519.0
43.98228311538696,557.0
44.036978244781494,603.0
44.040627241134644,654.0
44.044394969940186,704.0
44.04778218269348,751.0
44.05134415626526,788.0
44.055678367614746,814.0
44.08181929588318,824.0
44.085294246673584,820.0
44.088929176330566,804.0
44.092458963394165,778.0
44.09766507148743,743.0
44.11593008041382,705.0
44.119731187820435,665.0
44.123563051223755,625.0
44.12801003456116,588.0
44.15942025184631,555.0
44.16318321228027,527.0
44.16768002510071,503.0
44.19301128387451,482.0
44.19661998748779,465.0
44.200284242630005,450.0
44.204694986343384,440.0
44.22609519958496,433.0
44.229517221450806,429.0
44.234671115875244,427.0
44.25924825668335,426.0
44.26294016838074,428.0
44.26725912094116,433.0
44.29187822341919,440.0
44.29539918899536,449.0
44.299015283584595,459.0
44.30338525772095,465.0
44.336926221847534,475.0
44.34050512313843,483.0
44.344675064086914,489.0
44.34833312034607,494.0
44.352806091308594,496.0
44.379215240478516,497.0
44.38290095329285,497.0
44.38727116584778,494.0
44.41178607940674,489.0
44.415406227111816,483.0
44.42062735557556,478.0
44.444255352020264,472.0
44.44792819023132,466.0
44.45156717300415,460.0
44.45592713356018,455.0
44.478026151657104,450.0
44.4817111492157,448.0
44.48608422279358,444.0
44.51053428649902,441.0
44.514143228530884,439.0
44.51778817176819,438.0
44.522136211395264,436.0
44.587390184402466,435.0
44.590845346450806,435.0
44.59431338310242,436.0
44.59755802154541,436.0
44.6007821559906,437.0
44.604493141174316,437.0
44.608705043792725,439.0
44.612518310546875,440.0
44.64057111740112,440.0
44.64418029785156,444.0
44.647823095321655,451.0
44.65220928192139,464.0
44.67436623573303,486.0
44.67792320251465,516.0
44.68155217170715,556.0
44.685869216918945,601.0
44.7245659828186,648.0
44.7282030582428,695.0
44.73236608505249,737.0
44.735625982284546,768.0
44.739684104919434,787.0
44.76047110557556,793.0
44.76413321495056,787.0
44.7678062915802,770.0
44.772157192230225,742.0
44.79423999786377,708.0
44.79774308204651,670.0
44.80290913581848,629.0
44.826709032058716,591.0
44.83038830757141,556.0
44.83367395401001,524.0
44.90504217147827,494.0
44.90823030471802,470.0
44.945858001708984,451.0
44.94945931434631,435.0
44.953208208084106,423.0
44.956971168518066,416.0
44.96068811416626,412.0
44.96445322036743,412.0
44.968218088150024,416.0
44.97204828262329,423.0
44.975749254226685,433.0
44.97950100898743,445.0
44.98314809799194,456.0
44.98671317100525,469.0
44.99108910560608,482.0
45.00932502746582,493.0
45.01297616958618,503.0
45.01735329627991,508.0
45.04817318916321,510.0
45.05177116394043,510.0
45.05548024177551,509.0
45.05984616279602,505.0
45.08297538757324,498.0
45.086958169937134,493.0
45.09052014350891,486.0
45.095078229904175,476.0
45.12177109718323,470.0
45.12543821334839,463.0
45.12993407249451,459.0
45.136428117752075,453.0
45.164966106414795,450.0
45.171651124954224,447.0
45.17182016372681,447.0
45.17610716819763,445.0
45.257747173309326,444.0
45.260802030563354,445.0
45.2639901638031,445.0
45.26733326911926,446.0
45.27076196670532,445.0
45.274535179138184,444.0
45.277770042419434,443.0
45.28129816055298,442.0
45.322622299194336,442.0
45.32590413093567,442.0
45.32923221588135,444.0
45.33245515823364,453.0
45.335750102996826,468.0
45.33897519111633,494.0
45.342135190963745,527.0
45.34527611732483,569.0
45.36109018325806,617.0
45.36442708969116,667.0
45.36855125427246,715.0
45.37226128578186,755.0
45.41506314277649,785.0
45.41852617263794,801.0
45.42225933074951,803.0
45.47012138366699,795.0
45.473374366760254,775.0
45.47671318054199,747.0
45.47990918159485,711.0
45.48323130607605,672.0
45.48725605010986,633.0
45.49100422859192,595.0
45.494755029678345,560.0
45.53697729110718,528.0
45.54064726829529,501.0
45.54437303543091,477.0
45.54844427108765,460.0
45.55169320106506,444.0
45.55497598648071,433.0
45.57424211502075,426.0
45.57795023918152,423.0
45.581547021865845,423.0
45.585907220840454,426.0
45.60800623893738,432.0
45.61168313026428,441.0
45.616024017333984,451.0
45.640552282333374,463.0
45.644567012786865,475.0
45.647979974746704,487.0
45.65127611160278,496.0
45.67812204360962,505.0
45.68164014816284,510.0
45.6868462562561,513.0
45.71065425872803,515.0
45.71421718597412,513.0
45.71857213973999,510.0
45.74318218231201,505.0
45.74675416946411,499.0
45.75109124183655,493.0
45.81866717338562,486.0
45.82206416130066,478.0
45.8255889415741,472.0
45.82931399345398,466.0
45.83270215988159,460.0
45.836085081100464,455.0
45.866931200027466,452.0
45.870689153671265,449.0
45.874425172805786,448.0
45.87819695472717,448.0
45.882000207901,448.0
45.88563418388367,449.0
45.88920211791992,449.0
45.89359426498413,448.0
45.911742210388184,449.0
45.91541624069214,449.0
45.919806241989136,450.0
45.944234132766724,451.0
45.9479341506958,455.0
45.95156192779541,463.0
45.955103397369385,479.0
45.97840118408203,502.0
45.98276710510254,536.0
46.00179719924927,580.0
46.00542426109314,631.0
46.009061098098755,685.0
46.013423204422,736.0
46.03547811508179,781.0
46.0391731262207,815.0
46.04435205459595,836.0
46.06709814071655,843.0
46.070428133010864,837.0
46.073710203170776,819.0
46.13622498512268,790.0
46.1744921207428,755.0
46.17817497253418,716.0
46.181947231292725,675.0
46.18566823005676,635.0
46.18936014175415,599.0
46.193111181259155,567.0
46.196853160858154,538.0
46.200581073760986,514.0
46.20453715324402,493.0
46.208404302597046,475.0
46.21200108528137,460.0
46.21635913848877,451.0
46.238304138183594,444.0
46.23851799964905,442.0
46.24253010749817,442.0
46.2468421459198,446.0
46.271228313446045,451.0
46.27456521987915,459.0
46.278104066848755,468.0
46.28238105773926,478.0
46.30553698539734,488.0
46.30916404724121,497.0
46.31354594230652,507.0
46.33800506591797,512.0
46.34150218963623,516.0
46.34584903717041,518.0
46.36983323097229,518.0
46.373287200927734,516.0
46.37664222717285,513.0
46.399869203567505,505.0
46.403263092041016,500.0
46.40655303001404,493.0
46.47247815132141,485.0
46.47581624984741,478.0
46.479289054870605,472.0
46.48255515098572,466.0
46.48616123199463,460.0
46.489771127700806,457.0
46.49328112602234,454.0
46.49683094024658,452.0
46.501185178756714,450.0
46.51950001716614,452.0
46.523197174072266,453.0
46.527477979660034,455.0
46.5367751121521,455.0
46.54137110710144,456.0
46.56804418563843,457.0
46.57132005691528,459.0
46.57478618621826,463.0
46.60053300857544,470.0
46.60417628288269,481.0
46.608532190322876,501.0
46.640846252441406,528.0
46.64440417289734,566.0
46.64806413650513,611.0
46.651687145233154,664.0
46.656028270721436,716.0
46.675950050354004,767.0
46.67983317375183,811.0
46.687257051467896,843.0
46.69063401222229,860.0
46.73882436752319,864.0
46.74208998680115,854.0
46.745400190353394,832.0
46.74892711639404,801.0
46.752092123031616,764.0
46.7884840965271,723.0
46.791938066482544,681.0
46.795555114746094,643.0
46.79913020133972,606.0
46.803471088409424,574.0
46.8242712020874,546.0
46.82782816886902,523.0
46.83297300338745,503.0
46.85684013366699,487.0
46.860448122024536,473.0
46.86408805847168,464.0
46.868404388427734,458.0
46.89176607131958,455.0
46.89542293548584,455.0
46.89901804924011,457.0
46.903424978256226,461.0
46.92552423477173,466.0
46.92903399467468,475.0
46.93341016769409,483.0
46.95803427696228,494.0
46.96174120903015,502.0
46.966961145401,510.0
46.98974633216858,515.0
46.993257999420166,518.0
46.996947288513184,519.0
47.03837203979492,518.0
47.041924238204956,514.0
47.04559516906738,510.0
47.04946827888489,503.0
47.0539870262146,496.0
47.07427406311035,487.0
47.077943086624146,479.0
47.0825982093811,471.0
47.08590531349182,465.0
47.10800218582153,459.0
47.111648082733154,454.0
47.116021156311035,451.0
47.14057540893555,450.0
47.1442232131958,451.0
47.14856028556824,452.0
47.17301297187805,452.0
47.17666411399841,453.0
47.18036127090454,454.0
47.183924198150635,455.0
47.206751346588135,455.0
47.21056413650513,455.0
47.2148699760437,455.0
47.23949909210205,455.0
47.243054151535034,459.0
47.247395038604736,463.0
47.28279709815979,473.0
47.286397218704224,492.0
47.28983235359192,521.0
47.29307007789612,559.0
47.2963502407074,604.0
47.33616924285889,656.0
47.33960819244385,706.0
47.342950105667114,752.0
47.346463203430176,788.0
47.3501660823822,811.0
47.39134120941162,820.0
47.39457726478577,816.0
47.39806318283081,799.0
47.40130829811096,772.0
47.40453910827637,737.0
47.40972018241882,696.0
47.42932724952698,654.0
47.432953119277954,613.0
47.43736433982849,575.0
47.46178722381592,539.0
47.465495109558105,509.0
47.46990895271301,483.0
47.4935040473938,461.0
47.49679613113403,445.0
47.50006723403931,431.0
47.503353118896484,421.0
47.52807331085205,415.0
47.53213906288147,413.0
47.53697109222412,412.0
47.54144835472107,416.0
47.56803512573242,423.0
47.571722984313965,432.0
47.57610607147217,443.0
47.63647222518921,455.0
47.68255019187927,467.0
47.68585801124573,480.0
47.68933606147766,492.0
47.692564964294434,501.0
47.69584107398987,507.0
47.69979214668274,512.0
47.70357918739319,513.0
47.70826601982117,511.0
47.71202206611633,508.0
47.715572357177734,503.0
47.71929121017456,496.0
47.723342180252075,487.0
47.72689914703369,481.0
47.730793952941895,473.0
47.74973011016846,468.0
47.753568172454834,463.0
47.75740432739258,460.0
47.80513834953308,455.0
47.8083062171936,453.0
47.81151008605957,450.0
47.814802169799805,448.0
47.81811022758484,448.0
47.8222930431366,448.0
47.86878514289856,447.0
47.87204122543335,448.0
47.87525224685669,450.0
47.878541231155396,451.0
47.88169026374817,452.0
47.884894371032715,456.0
47.970017194747925,459.0
47.973318099975586,464.0
47.976811170578,472.0
47.9801390171051,486.0
47.9834361076355,508.0
47.98674511909485,539.0
48.02069401741028,579.0
48.02442717552185,626.0
48.02810025215149,679.0
48.031859159469604,731.0
48.035569190979004,776.0
48.03928327560425,814.0
48.042914152145386,839.0
48.046685218811035,849.0
48.050737142562866,845.0
48.05441403388977,827.0
48.057961225509644,798.0
48.062350034713745,762.0
48.08054518699646,719.0
48.084208250045776,676.0
48.0893030166626,632.0
48.112295150756836,591.0
48.11578106880188,551.0
48.119134187698364,518.0
48.14554023742676,487.0
48.14922904968262,463.0
48.14942407608032,445.0
48.15363812446594,432.0
48.17815327644348,423.0
48.18172216415405,420.0
48.18609619140625,422.0
48.23714017868042,427.0
48.240628242492676,439.0
48.244373083114624,454.0
48.248075008392334,471.0
48.25160813331604,488.0
48.25600719451904,503.0
48.274292945861816,516.0
48.27794623374939,528.0
48.281588315963745,536.0
48.28486704826355,539.0
48.30719017982483,540.0
48.31155300140381,537.0
48.314857959747314,531.0
48.3405020236969,524.0
48.344404220581055,515.0
48.3479962348938,507.0
48.352211236953735,497.0
48.37430024147034,488.0
48.377965211868286,478.0
48.38232231140137,470.0
48.40679121017456,463.0
48.41043519973755,458.0
48.4137179851532,456.0
48.439340114593506,453.0
48.44292616844177,451.0
48.44806408882141,452.0
48.47180104255676,450.0
48.47552418708801,452.0
48.47983932495117,453.0
48.50427222251892,455.0
48.5083122253418,457.0
48.51182222366333,458.0
48.51531004905701,460.0
48.56589102745056,462.0
48.56946611404419,465.0
48.57338905334473,471.0
48.577168226242065,483.0
48.580745220184326,502.0
48.58413219451904,532.0
48.588484048843384,570.0
48.60679912567139,617.0
48.6104531288147,668.0
48.614930152893066,721.0
48.63943910598755,768.0
48.642582178115845,805.0
48.64577627182007,832.0
48.68138813972473,843.0
48.684574365615845,841.0
48.68780207633972,828.0
48.69104218482971,802.0
48.69424510002136,768.0
48.745201110839844,729.0
48.748329162597656,687.0
48.75157713890076,645.0
48.754855155944824,606.0
48.75793814659119,571.0
48.76130199432373,540.0
48.81631422042847,513.0
48.819700956344604,493.0
48.81989312171936,475.0
48.887107133865356,462.0
48.887277126312256,450.0
48.887434005737305,444.0
48.88760018348694,443.0
48.89134216308594,443.0
48.89492726325989,446.0
48.898635149002075,452.0
48.902207136154175,461.0
48.90581512451172,470.0
48.90954232215881,480.0
48.91319704055786,490.0
48.91675019264221,498.0
48.921096324920654,506.0
48.94333004951477,514.0
48.946805000305176,519.0
48.951984167099,525.0
48.97556138038635,527.0
48.979209184646606,529.0
48.98280715942383,530.0
48.9876971244812,530.0
49.00931715965271,528.0
49.013084173202515,527.0
49.01674818992615,523.0
49.02119326591492,518.0
49.04703211784363,513.0
49.05045294761658,508.0
49.05524206161499,502.0
49.07931208610535,495.0
49.082935094833374,490.0
49.088112115859985,483.0
49.14756917953491,476.0
49.1507031917572,469.0
49.154099225997925,463.0
49.15781617164612,456.0
49.16139531135559,451.0
49.165234327316284,446.0
49.16960620880127,441.0
49.200923204422,439.0
49.204583168029785,438.0
49.208285331726074,441.0
49.21201205253601,453.0
49.21550107002258,473.0
49.219948053359985,505.0
49.23734927177429,551.0
49.245543241500854,605.0
49.249181270599365,666.0
49.25352120399475,724.0
49.27808713912964,778.0
49.281708002090454,820.0
