1.1920928955078125e-06,747.0
0.2398390769958496,805.0
0.2789270877838135,853.0
0.3146512508392334,887.0
0.3524050712585449,903.0
0.3958721160888672,901.0
0.4340031147003174,879.0
0.4711580276489258,838.0
0.5084891319274902,784.0
0.5448591709136963,720.0
0.5824151039123535,652.0
0.6195430755615234,583.0
0.6574480533599854,516.0
0.6947951316833496,457.0
0.7460060119628906,404.0
0.7849442958831787,363.0
0.822303056716919,330.0
0.8596851825714111,309.0
0.8975591659545898,299.0
0.9334800243377686,301.0
0.9721522331237793,315.0
1.0096509456634521,339.0
1.0460031032562256,369.0
1.0963232517242432,404.0
1.0965192317962646,443.0
1.0966131687164307,481.0
1.1334891319274902,516.0
1.1335852146148682,546.0
1.1336610317230225,568.0
1.1337370872497559,583.0
1.1712582111358643,589.0
1.171457052230835,586.0
1.171640157699585,576.0
1.2086710929870605,560.0
1.2087721824645996,538.0
1.2088491916656494,513.0
1.208923101425171,487.0
1.2460622787475586,460.0
1.2461581230163574,435.0
1.2462341785430908,412.0
1.2463080883026123,392.0
1.2847580909729004,378.0
1.2849442958831787,369.0
1.2851052284240723,363.0
1.2852632999420166,363.0
1.3222160339355469,366.0
1.3223512172698975,372.0
1.322425127029419,382.0
1.3596291542053223,392.0
1.3597350120544434,403.0
1.359835147857666,415.0
1.3599951267242432,423.0
1.397233247756958,432.0
1.3973362445831299,438.0
1.3974120616912842,443.0
1.397489309310913,447.0
1.397564172744751,454.0
1.4458582401275635,467.0
1.4459540843963623,488.0
1.4460301399230957,520.0
1.4461040496826172,565.0
1.4832162857055664,623.0
1.483290195465088,690.0
1.4833652973175049,760.0
1.5195729732513428,828.0
1.519651174545288,883.0
1.5197250843048096,922.0
1.5197992324829102,940.0
1.5198731422424316,938.0
1.5569860935211182,916.0
1.557075023651123,874.0
1.5571551322937012,815.0
1.5945842266082764,746.0
1.5946812629699707,673.0
1.5947692394256592,598.0
1.5948500633239746,526.0
1.6320171356201172,461.0
1.6321122646331787,406.0
1.6321930885314941,361.0
1.6322691440582275,327.0
1.6696851253509521,305.0
1.6697781085968018,292.0
1.669853925704956,289.0
1.707207202911377,295.0
1.7073040008544922,310.0
1.7073900699615479,330.0
1.7074670791625977,356.0
1.7449421882629395,384.0
1.7451481819152832,415.0
1.7453091144561768,445.0
1.745393991470337,472.0
1.745469093322754,497.0
1.7985801696777344,514.0
1.7986931800842285,525.0
1.798769235610962,530.0
1.7988431453704834,528.0
1.8362691402435303,521.0
1.8363902568817139,508.0
1.8364732265472412,494.0
1.836550235748291,475.0
1.8734033107757568,457.0
1.873509168624878,439.0
1.8735871315002441,423.0
1.910872220993042,408.0
1.9109601974487305,395.0
1.9110369682312012,384.0
1.9111113548278809,375.0
1.9111859798431396,372.0
1.9482851028442383,371.0
1.9484381675720215,374.0
1.9485151767730713,379.0
1.9857242107391357,385.0
1.985809326171875,395.0
1.9858860969543457,403.0
1.9859609603881836,411.0
2.024419069290161,419.0
2.0245461463928223,427.0
2.0246269702911377,432.0
2.0247061252593994,435.0
2.0247812271118164,439.0
2.024858236312866,445.0
2.0249390602111816,454.0
2.0250141620635986,468.0
2.0250890254974365,493.0
2.0251641273498535,531.0
2.025240182876587,580.0
2.025318145751953,640.0
2.0253922939300537,707.0
2.0254671573638916,774.0
2.0256080627441406,836.0
2.025684118270874,884.0
2.0257601737976074,916.0
2.025850296020508,927.0
2.0259273052215576,920.0
2.026005983352661,891.0
2.0260820388793945,846.0
2.026158094406128,787.0
2.026233196258545,721.0
2.0263071060180664,651.0
2.0263822078704834,581.0
2.026456117630005,515.0
2.026531219482422,457.0
2.0266060829162598,405.0
2.0266811847686768,363.0
2.02675724029541,332.0
2.0268301963806152,310.0
2.026905059814453,299.0
2.0269792079925537,297.0
2.0270562171936035,304.0
2.027139186859131,319.0
2.0272140502929688,341.0
2.0272881984710693,366.0
2.027362108230591,394.0
2.027440309524536,425.0
2.0275161266326904,455.0
2.027595043182373,481.0
2.02767014503479,503.0
2.0588600635528564,519.0
2.0589520931243896,530.0
2.0590310096740723,533.0
2.0591070652008057,530.0
2.0591812133789062,522.0
2.0592551231384277,509.0
2.059331178665161,493.0
2.0594072341918945,475.0
2.0594820976257324,456.0
2.0595571994781494,436.0
2.0596323013305664,420.0
2.0597071647644043,406.0
2.059783935546875,395.0
2.0598599910736084,386.0
2.0599350929260254,381.0
2.060012102127075,379.0
2.060089111328125,380.0
2.0601673126220703,384.0
2.060241937637329,389.0
2.060317039489746,396.0
2.0623061656951904,404.0
2.0986900329589844,413.0
2.1498303413391113,420.0
2.185866117477417,428.0
2.2223801612854004,435.0
2.258376121520996,440.0
2.2937049865722656,443.0
2.329850196838379,446.0
2.3659591674804688,448.0
2.4024131298065186,455.0
2.438551187515259,466.0
2.5004260540008545,486.0
2.503894090652466,516.0
2.5077641010284424,559.0
2.511528968811035,611.0
2.5151162147521973,674.0
2.519658088684082,740.0
2.5810511112213135,803.0
2.6188600063323975,856.0
2.6562981605529785,895.0
2.656464099884033,915.0
2.693490982055664,914.0
2.6936001777648926,894.0
2.6936802864074707,856.0
2.7310452461242676,803.0
2.7311391830444336,740.0
2.731222152709961,672.0
2.7313029766082764,603.0
2.7688393592834473,537.0
2.769024133682251,476.0
2.769111156463623,423.0
2.8060481548309326,380.0
2.8061530590057373,345.0
2.806230068206787,321.0
2.806305170059204,306.0
2.8623931407928467,300.0
2.8625221252441406,306.0
2.862612009048462,318.0
2.862694263458252,339.0
2.8822431564331055,364.0
2.8823370933532715,394.0
2.8824172019958496,423.0
2.919711112976074,453.0
2.9198060035705566,479.0
2.9198861122131348,500.0
2.91996431350708,517.0
2.9573440551757812,528.0
2.9574830532073975,533.0
2.9575681686401367,531.0
2.994899034500122,523.0
2.9949982166290283,510.0
2.995077133178711,495.0
2.995176076889038,476.0
2.995250940322876,456.0
2.9953250885009766,437.0
2.995439291000366,417.0
2.9996092319488525,402.0
3.035933017730713,388.0
3.0740201473236084,379.0
3.111467123031616,372.0
3.148423910140991,369.0
3.2125062942504883,369.0
3.2501060962677,372.0
3.2502572536468506,379.0
3.250336170196533,385.0
3.2504122257232666,393.0
3.2504892349243164,401.0
3.250566244125366,409.0
3.2861480712890625,418.0
3.286250114440918,425.0
3.2863340377807617,431.0
3.322321891784668,436.0
3.322467088699341,440.0
3.3225481510162354,443.0
3.3226239681243896,448.0
3.35876727104187,458.0
3.3950181007385254,474.0
3.395164966583252,499.0
3.3952462673187256,537.0
3.3953232765197754,587.0
3.3954010009765625,646.0
3.3955299854278564,711.0
3.395632266998291,776.0
3.398458242416382,834.0
3.3985443115234375,880.0
3.398621082305908,909.0
3.4336211681365967,916.0
3.43373703956604,905.0
3.4338161945343018,875.0
3.433899164199829,829.0
3.4339771270751953,772.0
3.4340641498565674,707.0
3.471161127090454,638.0
3.4712719917297363,570.0
3.5085949897766113,505.0
3.5086941719055176,446.0
3.508772134780884,396.0
3.5611090660095215,354.0
3.561213970184326,323.0
3.561290979385376,303.0
3.5613691806793213,295.0
3.5614452362060547,297.0
3.597334146499634,311.0
3.597433090209961,333.0
3.5975091457366943,363.0
3.63631010055542,399.0
3.673539161682129,437.0
3.6736719608306885,475.0
3.673755168914795,510.0
3.711435079574585,540.0
3.711562156677246,564.0
3.7116410732269287,579.0
3.7117183208465576,588.0
3.748624324798584,587.0
3.7487621307373047,579.0
3.748840093612671,564.0
3.7859809398651123,544.0
3.7860989570617676,520.0
3.7861740589141846,494.0
3.7862510681152344,469.0
3.8233001232147217,445.0
3.8234570026397705,424.0
3.8235461711883545,406.0
3.8236382007598877,391.0
3.8237240314483643,382.0
3.8238260746002197,376.0
3.823974132537842,373.0
3.8279712200164795,374.0
3.828052043914795,379.0
3.8281302452087402,385.0
3.8282041549682617,393.0
3.863379955291748,402.0
3.863485097885132,410.0
3.8635611534118652,418.0
3.9136741161346436,425.0
3.913802146911621,431.0
3.913879156112671,437.0
3.913999080657959,444.0
3.950923204421997,454.0
3.9510159492492676,471.0
3.9510929584503174,496.0
3.9887843132019043,534.0
3.988896131515503,582.0
3.9889731407165527,643.0
3.9890801906585693,710.0
4.025897026062012,777.0
4.063560962677002,839.0
4.063691139221191,889.0
4.063770294189453,922.0
4.101052284240723,936.0
4.101205110549927,930.0
4.101285219192505,903.0
4.101362943649292,861.0
4.138551235198975,803.0
4.138659238815308,736.0
4.138737201690674,665.0
4.176144123077393,593.0
4.176265001296997,524.0
4.176343202590942,460.0
4.176421165466309,405.0
4.176507234573364,358.0
4.176605939865112,319.0
4.212144136428833,292.0
4.212233066558838,277.0
4.212309122085571,274.0
4.2123939990997314,281.0
4.26501202583313,299.0
4.26516318321228,324.0
4.265242099761963,356.0
4.303140163421631,392.0
4.30327296257019,429.0
4.303350210189819,463.0
4.303437232971191,495.0
4.339905023574829,521.0
4.3400421142578125,540.0
4.340122222900391,553.0
4.340212106704712,556.0
4.377079010009766,553.0
4.377174139022827,543.0
4.377253293991089,528.0
4.413595199584961,511.0
4.413711071014404,493.0
4.413789987564087,474.0
4.41386604309082,455.0
4.451322078704834,438.0
4.451463222503662,424.0
4.45156717300415,413.0
4.451646089553833,405.0
4.488413095474243,399.0
4.526421070098877,397.0
4.526569128036499,398.0
4.526649236679077,400.0
4.563633918762207,404.0
4.56377911567688,409.0
4.563859939575195,414.0
4.563935041427612,422.0
4.564014196395874,427.0
4.6148521900177,432.0
4.614950895309448,437.0
4.615025997161865,441.0
4.653703927993774,446.0
4.653852939605713,451.0
4.653945207595825,462.0
4.654031276702881,482.0
4.690924167633057,511.0
4.691015958786011,553.0
4.691096067428589,608.0
4.691187143325806,673.0
4.691265106201172,740.0
4.728564977645874,806.0
4.728715181350708,864.0
4.728794097900391,908.0
4.767591953277588,934.0
4.767693042755127,940.0
4.76776909828186,924.0
4.767843246459961,888.0
4.803617000579834,836.0
4.803810119628906,770.0
4.803976058959961,699.0
4.840564012527466,623.0
4.840743064880371,551.0
4.840900182723999,484.0
4.84105920791626,425.0
4.844105958938599,376.0
4.844281196594238,336.0
4.844441175460815,308.0
4.844597101211548,291.0
4.848058223724365,285.0
4.848229169845581,288.0
4.848388195037842,302.0
4.848545074462891,324.0
4.848713159561157,353.0
4.851561069488525,385.0
4.8517231941223145,419.0
4.85188102722168,451.0
4.852037191390991,482.0
4.855088233947754,508.0
4.855247259140015,524.0
4.85540509223938,535.0
4.859845161437988,539.0
4.860003232955933,536.0
4.8601601123809814,527.0
4.860316276550293,512.0
4.9122631549835205,494.0
4.9124250411987305,473.0
4.912581205368042,451.0
4.912736177444458,431.0
4.9501330852508545,412.0
4.950319290161133,397.0
4.950491189956665,385.0
4.950646162033081,375.0
4.989372968673706,370.0
4.989560127258301,367.0
4.989720106124878,368.0
4.989878177642822,371.0
5.0258800983428955,377.0
5.026043176651001,385.0
5.02620005607605,393.0
5.063369989395142,402.0
5.063532114028931,411.0
5.063690185546875,420.0
5.063847064971924,428.0
5.101128101348877,434.0
5.101301193237305,440.0
5.101459980010986,446.0
5.101618051528931,455.0
5.101774215698242,470.0
5.142031192779541,495.0
5.142215251922607,531.0
5.142372131347656,579.0
5.145829200744629,638.0
5.145993947982788,703.0
5.1461591720581055,770.0
5.146316051483154,831.0
5.14647102355957,880.0
5.1494300365448,913.0
5.149600028991699,925.0
5.14975905418396,916.0
5.153163194656372,887.0
5.153321981430054,841.0
5.1534810066223145,781.0
5.153645038604736,713.0
5.157339334487915,641.0
5.157499313354492,570.0
5.157657146453857,502.0
5.157841920852661,440.0
5.160250186920166,386.0
5.160412311553955,344.0
5.160567045211792,311.0
5.16072416305542,289.0
5.2122602462768555,279.0
5.247430324554443,280.0
5.283483266830444,292.0
5.321056127548218,312.0
5.358732223510742,338.0
5.39608907699585,368.0
5.433511972427368,402.0
5.433674097061157,435.0
5.4338319301605225,465.0
5.433990240097046,492.0
5.434148073196411,514.0
5.436924934387207,527.0
5.437084197998047,535.0
5.437242269515991,536.0
5.440078258514404,532.0
5.4402382373809814,521.0
5.440396070480347,506.0
5.440554141998291,488.0
5.443469047546387,469.0
5.443634033203125,448.0
5.443788051605225,429.0
5.443944931030273,412.0
5.446838140487671,397.0
5.4469990730285645,384.0
5.447152137756348,375.0
5.447317123413086,371.0
5.450588941574097,368.0
5.450750112533569,369.0
5.450906276702881,371.0
5.45106315612793,375.0
5.507694244384766,382.0
5.543528079986572,390.0
5.582118988037109,396.0
5.619570970535278,404.0
5.656081914901733,411.0
5.693711280822754,418.0
5.7307891845703125,424.0
5.730951309204102,431.0
5.731116056442261,439.0
5.731276035308838,448.0
5.734279155731201,462.0
5.734450101852417,485.0
5.734608173370361,518.0
5.734779119491577,563.0
5.737568140029907,618.0
5.737729072570801,680.0
5.737884998321533,745.0
5.738042116165161,805.0
5.740957975387573,856.0
5.741119146347046,891.0
5.741276979446411,907.0
5.741434097290039,905.0
5.7442522048950195,881.0
5.744412183761597,843.0
5.7445759773254395,788.0
5.747649192810059,726.0
5.74780797958374,657.0
5.747966051101685,587.0
5.748149156570435,518.0
5.802371263504028,455.0
5.8385820388793945,399.0
5.877729177474976,354.0
5.914583206176758,318.0
5.951022148132324,291.0
5.989495038986206,275.0
6.027106046676636,272.0
6.0271852016448975,279.0
6.0272603034973145,296.0
6.02734112739563,323.0
6.027417182922363,356.0
6.065171003341675,393.0
6.0652689933776855,432.0
6.065345048904419,468.0
6.065420150756836,501.0
6.06899094581604,528.0
6.069152116775513,548.0
6.069308280944824,562.0
6.0726799964904785,568.0
6.072838306427002,565.0
6.072995185852051,556.0
6.0731682777404785,540.0
6.076368093490601,521.0
6.076528310775757,499.0
6.076686143875122,476.0
6.076843023300171,452.0
6.080275058746338,431.0
6.080451250076294,412.0
6.080609083175659,396.0
6.080765962600708,384.0
6.134404182434082,376.0
6.138810157775879,373.0
6.172086000442505,372.0
6.208476305007935,373.0
6.245800018310547,377.0
6.284077167510986,383.0
6.321425199508667,390.0
6.321592092514038,399.0
6.321750164031982,408.0
6.321907043457031,415.0
6.358278274536133,424.0
6.358486175537109,433.0
6.358647108078003,446.0
6.358805179595947,461.0
6.361281156539917,484.0
6.361453056335449,515.0
6.361613035202026,558.0
6.361781120300293,610.0
6.364479064941406,671.0
6.3646399974823,735.0
6.364798069000244,796.0
6.364953279495239,847.0
6.367879152297974,886.0
6.368048191070557,906.0
6.368207216262817,907.0
6.368364095687866,889.0
6.371588230133057,852.0
6.371748208999634,801.0
6.3719072341918945,739.0
6.3753321170806885,673.0
6.375493288040161,601.0
6.3756492137908936,531.0
6.375804901123047,465.0
6.378497123718262,407.0
6.430974006652832,356.0
6.468564987182617,317.0
6.506063222885132,287.0
6.543605089187622,270.0
6.58205509185791,265.0
6.58221697807312,272.0
6.619652271270752,290.0
6.619826078414917,318.0
6.619985342025757,352.0
6.62014102935791,391.0
6.656910181045532,431.0
6.657080173492432,469.0
6.6572370529174805,504.0
6.657393932342529,533.0
6.660534143447876,556.0
6.660698175430298,569.0
6.660856246948242,574.0
6.664228200912476,572.0
6.664386034011841,562.0
6.664543151855469,547.0
6.66469931602478,526.0
6.667351007461548,503.0
6.667430877685547,481.0
6.667505979537964,460.0
6.670721054077148,439.0
6.670804023742676,420.0
6.670879125595093,404.0
6.670953035354614,393.0
6.675725221633911,384.0
6.675799131393433,380.0
6.728218078613281,380.0
6.765968322753906,382.0
6.803467035293579,385.0
6.840997219085693,391.0
6.8784871101379395,399.0
6.9158031940460205,406.0
6.95563006401062,414.0
6.955793142318726,423.0
6.9559502601623535,435.0
6.959368944168091,451.0
6.959527969360352,475.0
6.9596850872039795,511.0
6.959842205047607,561.0
6.962891101837158,622.0
6.963051080703735,693.0
6.963236093521118,768.0
6.96343207359314,840.0
6.966605186462402,902.0
6.9667651653289795,944.0
6.966921091079712,947.0
6.970582008361816,947.0
6.970740079879761,947.0
6.970896244049072,926.0
6.971053123474121,873.0
6.971208095550537,807.0
6.975801229476929,734.0
6.975967168807983,656.0
6.976124286651611,581.0
7.027121305465698,510.0
7.065221309661865,447.0
7.102051258087158,391.0
7.139463901519775,346.0
7.177206039428711,311.0
7.21490216255188,288.0
7.250900983810425,279.0
7.250999212265015,282.0
7.2510740756988525,295.0
7.251153230667114,318.0
7.251228332519531,348.0
7.253974199295044,383.0
7.254061222076416,420.0
7.254140138626099,457.0
7.254215955734253,492.0
7.257168292999268,522.0
7.257244348526001,545.0
7.2573182582855225,562.0
7.2573912143707275,568.0
7.260658025741577,568.0
7.260733127593994,561.0
7.260806322097778,548.0
7.263834238052368,530.0
7.263907194137573,510.0
7.2640540599823,488.0
7.264233112335205,468.0
7.267237186431885,449.0
7.267317056655884,431.0
7.267393112182617,417.0
7.267468214035034,407.0
7.271389007568359,401.0
7.323245048522949,397.0
7.326868057250977,399.0
7.362098932266235,403.0
7.399730920791626,407.0
7.437256097793579,414.0
7.474908351898193,422.0
7.4750730991363525,430.0
7.475229978561401,438.0
7.475386142730713,445.0
7.47551703453064,454.0
7.512386083602905,466.0
7.512554168701172,485.0
7.512712001800537,513.0
7.512867212295532,556.0
7.549521207809448,613.0
7.54970121383667,682.0
7.549875974655151,759.0
7.552839994430542,837.0
7.5530009269714355,910.0
7.553166151046753,947.0
7.553335189819336,947.0
7.55669093132019,947.0
7.556849241256714,947.0
7.557005167007446,947.0
7.557159900665283,947.0
7.559920310974121,923.0
7.56007719039917,851.0
7.560233116149902,769.0
7.560387134552002,684.0
7.563140153884888,604.0
7.566444158554077,529.0
7.619761943817139,463.0
7.657397985458374,406.0
7.694822311401367,360.0
7.733473062515259,327.0
7.7709691524505615,305.0
7.808763265609741,297.0
7.846337080001831,300.0
7.846501111984253,313.0
7.846659183502197,334.0
7.85020899772644,362.0
7.85037899017334,394.0
7.850538015365601,428.0
7.853862285614014,459.0
7.854020118713379,488.0
7.854176044464111,512.0
7.85433030128479,530.0
7.854485988616943,540.0
7.85759425163269,544.0
7.857754230499268,542.0
7.857911109924316,534.0
7.863039970397949,520.0
7.8632121086120605,504.0
7.863372087478638,484.0
7.863537311553955,464.0
7.916711091995239,446.0
7.916872024536133,429.0
7.917028188705444,414.0
7.917184114456177,402.0
7.921101093292236,393.0
7.955851078033447,388.0
7.993555068969727,386.0
8.031517028808594,387.0
8.06889820098877,388.0
8.106016159057617,393.0
8.144111156463623,398.0
8.144289016723633,405.0
8.144448041915894,413.0
8.144606113433838,419.0
8.14478325843811,426.0
8.147355318069458,432.0
8.147520065307617,437.0
8.147676944732666,440.0
8.15158200263977,444.0
8.151743173599243,453.0
8.151901006698608,468.0
8.152059316635132,496.0
8.155790090560913,539.0
8.155949115753174,598.0
8.156105041503906,668.0
8.156261205673218,746.0
8.159734010696411,825.0
8.159899234771729,897.0
8.160063028335571,946.0
8.186442136764526,947.0
8.186628103256226,947.0
8.186785221099854,947.0
8.186944007873535,947.0
8.224298000335693,914.0
8.260581254959106,848.0
8.264137983322144,770.0
8.26797103881836,688.0
8.272017240524292,606.0
8.276323080062866,531.0
8.276489973068237,463.0
8.276648998260498,407.0
8.28036618232727,360.0
8.280532121658325,325.0
8.280689239501953,301.0
8.330864191055298,288.0
8.33100700378418,286.0
8.331131219863892,294.0
8.331253051757812,311.0
8.334408044815063,334.0
8.334549188613892,362.0
8.33466911315918,393.0
8.338133096694946,425.0
8.338306188583374,455.0
8.338472127914429,482.0
8.338632106781006,504.0
8.341767311096191,521.0
8.341926336288452,530.0
8.342081069946289,535.0
8.342235326766968,532.0
8.345285177230835,525.0
8.34544324874878,512.0
8.345596313476562,496.0
8.345752239227295,478.0
8.348868131637573,458.0
8.353517055511475,439.0
8.406017065048218,420.0
8.442270040512085,404.0
8.479755163192749,391.0
8.517313003540039,379.0
8.51747727394104,372.0
8.517641067504883,368.0
8.55477523803711,367.0
8.554936170578003,368.0
8.555093050003052,372.0
8.592143297195435,377.0
8.63076400756836,386.0
8.634177207946777,396.0
8.637843132019043,407.0
8.641170024871826,417.0
8.64480209350586,426.0
8.648128032684326,432.0
8.64829421043396,437.0
8.702237129211426,440.0
8.7398841381073,442.0
8.777664184570312,441.0
8.814558982849121,440.0
8.852370977401733,439.0
8.852553129196167,439.0
8.852713108062744,441.0
8.852871179580688,450.0
8.853034973144531,470.0
8.853219270706177,506.0
8.85338020324707,558.0
8.85353708267212,628.0
8.853691101074219,708.0
8.853846073150635,793.0
8.85400128364563,873.0
8.854156017303467,940.0
8.8543119430542,947.0
8.854474067687988,947.0
8.854631900787354,947.0
8.854787111282349,947.0
8.854942083358765,947.0
8.855103969573975,905.0
8.855260133743286,825.0
8.855417251586914,736.0
8.855571985244751,645.0
8.855728149414062,556.0
8.855884075164795,474.0
8.856039047241211,400.0
8.856203079223633,342.0
8.856359004974365,295.0
8.856521129608154,263.0
8.85667896270752,246.0
8.856834173202515,242.0
8.856988191604614,252.0
8.857144117355347,272.0
8.857263088226318,301.0
8.857377052307129,336.0
8.857489347457886,375.0
8.8576021194458,416.0
8.8577139377594,455.0
8.857827186584473,490.0
8.857939958572388,519.0
8.858053207397461,540.0
8.85816502571106,550.0
8.888669967651367,553.0
8.929253101348877,550.0
8.932591199874878,539.0
8.93595814704895,524.0
8.939385175704956,505.0
8.94342303276062,483.0
8.946314096450806,459.0
8.950030088424683,437.0
9.00101613998413,416.0
9.038535356521606,399.0
9.07702922821045,384.0
9.115195274353027,374.0
9.151028156280518,366.0
9.188598155975342,362.0
9.232088088989258,361.0
9.23546314239502,364.0
9.238661289215088,369.0
9.242134094238281,376.0
9.24514889717102,385.0
9.248218297958374,394.0
9.251605987548828,404.0
9.30489706993103,414.0
9.308313131332397,423.0
9.343576192855835,431.0
9.390010118484497,435.0
9.427910327911377,439.0
9.463999032974243,440.0
9.511307001113892,439.0
9.51154613494873,438.0
9.511709928512573,434.0
9.514305114746094,430.0
9.514540195465088,424.0
9.514742136001587,422.0
9.514941930770874,420.0
9.517603158950806,423.0
9.517789125442505,434.0
9.517975091934204,456.0
9.518141031265259,494.0
9.521391153335571,545.0
9.521567106246948,610.0
9.521724224090576,685.0
9.521881103515625,763.0
9.524582147598267,835.0
9.524742126464844,895.0
9.524899244308472,934.0
9.525053024291992,947.0
9.5280282497406,947.0
9.583698987960815,918.0
9.619661092758179,871.0
9.656034231185913,807.0
9.693445205688477,732.0
9.729666233062744,651.0
9.765935182571411,571.0
9.7691810131073,494.0
9.772812128067017,424.0
9.773012161254883,364.0
9.773170948028564,313.0
9.776597023010254,275.0
9.776772260665894,249.0
9.77695631980896,235.0
9.777120113372803,234.0
9.777308940887451,246.0
9.780156135559082,268.0
9.780322074890137,299.0
9.780478954315186,336.0
9.784540176391602,378.0
9.784708261489868,419.0
9.784879207611084,459.0
9.785043001174927,493.0
9.836849927902222,521.0
9.837101221084595,541.0
9.837265968322754,552.0
9.837450981140137,555.0
9.837611198425293,550.0
9.839977979660034,538.0
9.843298196792603,522.0
9.846513271331787,502.0
9.851747035980225,479.0
9.906814098358154,454.0
9.912008047103882,432.0
9.944993019104004,411.0
9.945176124572754,391.0
9.945372343063354,376.0
9.945532321929932,366.0
9.945711135864258,357.0
9.98333215713501,355.0
9.983497142791748,356.0
9.983660221099854,359.0
10.020818948745728,366.0
10.020986080169678,374.0
10.021145105361938,383.0
10.02133822441101,393.0
10.05722713470459,403.0
10.057407140731812,412.0
10.057574987411499,420.0
10.096405029296875,426.0
10.096583366394043,431.0
10.096778154373169,435.0
10.097016096115112,437.0
10.133718013763428,436.0
10.137287139892578,436.0
10.141354084014893,435.0
10.145041942596436,435.0
10.149075031280518,432.0
10.152825117111206,429.0
10.203454971313477,430.0
10.20362401008606,434.0
10.239717245101929,448.0
10.276818990707397,473.0
10.312263250350952,512.0
10.349783182144165,563.0
10.38706111907959,626.0
10.387274980545044,696.0
10.425235986709595,766.0
10.425420045852661,829.0
10.425591230392456,880.0
10.425779104232788,914.0
10.428884029388428,928.0
10.429119110107422,918.0
10.42930006980896,889.0
10.429485082626343,841.0
10.432793140411377,778.0
10.432966232299805,708.0
10.43314003944397,631.0
10.43331503868103,555.0
10.436487913131714,482.0
10.436655282974243,415.0
10.436813116073608,356.0
10.44092321395874,309.0
10.441094160079956,273.0
10.441256999969482,248.0
10.441433191299438,236.0
10.494433164596558,237.0
10.494652271270752,250.0
10.494829177856445,272.0
10.495023250579834,302.0
10.498661279678345,341.0
10.533344030380249,384.0
10.571046113967896,426.0
10.608840942382812,467.0
10.645807266235352,503.0
10.683305978775024,532.0
10.721395015716553,553.0
10.721575021743774,566.0
10.721735954284668,570.0
10.721894264221191,566.0
10.72205114364624,554.0
10.725142002105713,536.0
10.725328207015991,515.0
10.725520133972168,491.0
10.727743148803711,465.0
10.727909088134766,440.0
10.728315114974976,416.0
10.728539228439331,395.0
10.731470108032227,377.0
10.732162237167358,364.0
10.73244333267212,357.0
10.734997034072876,353.0
10.735284090042114,354.0
10.735489130020142,357.0
10.73575210571289,364.0
10.739686250686646,374.0
10.739825248718262,384.0
10.739940166473389,395.0
10.74007511138916,405.0
10.740429162979126,415.0
10.756543159484863,424.0
10.760053157806396,433.0
10.764370918273926,440.0
10.767695188522339,443.0
10.771698951721191,445.0
10.775323152542114,446.0
10.77901005744934,446.0
10.779093027114868,445.0
10.779170036315918,444.0
10.779259204864502,444.0
10.782743215560913,447.0
10.78282904624939,456.0
10.783004999160767,476.0
10.786473989486694,510.0
10.786556959152222,556.0
10.786633968353271,612.0
10.786708116531372,677.0
10.789923191070557,745.0
10.790009260177612,809.0
10.790085315704346,863.0
10.790160179138184,901.0
10.793730020523071,920.0
10.793814182281494,918.0
10.793890237808228,896.0
10.793963193893433,856.0
10.797368049621582,801.0
10.797453165054321,734.0
10.797527074813843,660.0
10.797600030899048,583.0
10.801165103912354,510.0
10.804941177368164,441.0
10.808683156967163,379.0
10.81232213973999,326.0
10.815839052200317,282.0
10.815921306610107,251.0
10.821009159088135,232.0
10.838816165924072,226.0
10.842440128326416,233.0
10.84686017036438,253.0
10.871249198913574,281.0
10.874748945236206,316.0
10.878351211547852,359.0
10.88195514678955,403.0
10.88644003868103,446.0
10.90626311302185,487.0
10.90989899635315,522.0
10.914302110671997,548.0
10.924690961837769,568.0
10.953801155090332,577.0
10.957468271255493,578.0
10.961897134780884,572.0
10.98657512664795,558.0
10.98993730545044,539.0
10.993770122528076,515.0
10.998086214065552,488.0
11.04662013053894,463.0
11.050103187561035,440.0
11.053903102874756,417.0
11.057622194290161,400.0
11.06118106842041,385.0
11.065794229507446,375.0
11.084379196166992,369.0
11.087599277496338,367.0
11.090759992599487,368.0
11.0940842628479,371.0
11.117990255355835,379.0
11.121222257614136,387.0
11.12437915802002,397.0
11.150546073913574,406.0
11.153900146484375,413.0
11.157239198684692,420.0
11.183140277862549,427.0
11.18645715713501,433.0
11.189820289611816,438.0
11.215558290481567,445.0
11.218947172164917,454.0
11.222256183624268,467.0
11.248154163360596,490.0
11.25147819519043,521.0
11.254666090011597,567.0
11.257832050323486,623.0
11.281759977340698,688.0
11.285215139389038,755.0
11.288548231124878,820.0
11.344284296035767,874.0
11.347629070281982,914.0
11.35128116607666,934.0
11.355014324188232,935.0
11.358841180801392,915.0
11.362337112426758,876.0
11.367537260055542,822.0
11.385037183761597,756.0
11.388570308685303,684.0
11.392264127731323,608.0
11.396536111831665,534.0
11.418768167495728,465.0
11.422372102737427,402.0
11.426772117614746,346.0
11.451279163360596,304.0
11.455125093460083,270.0
11.459638118743896,248.0
11.487192153930664,239.0
11.490657091140747,242.0
11.49505615234375,256.0
11.518867015838623,280.0
11.522516965866089,314.0
11.526224136352539,353.0
11.530590057373047,396.0
11.552523136138916,440.0
11.556081295013428,479.0
11.560431241989136,515.0
11.584201097488403,543.0
11.587454080581665,563.0
11.591142177581787,575.0
11.595490217208862,576.0
11.645384073257446,571.0
11.648736000061035,556.0
11.652382135391235,538.0
11.655937194824219,516.0
11.659651041030884,492.0
11.66325306892395,466.0
11.667622327804565,440.0
11.68796420097351,420.0
11.69159722328186,401.0
11.695902109146118,386.0
11.721275329589844,375.0
11.724924325942993,367.0
11.72877311706543,365.0
11.733898162841797,365.0
11.75645899772644,368.0
11.759966135025024,374.0
11.764349937438965,382.0
11.787798166275024,390.0
11.791182279586792,398.0
11.79448914527893,407.0
11.846626043319702,414.0
11.850134134292603,422.0
11.853913068771362,428.0
11.85756230354309,435.0
11.861094951629639,445.0
11.86549711227417,461.0
11.883877277374268,486.0
11.887429237365723,523.0
11.890706062316895,575.0
11.946551084518433,639.0
11.949933052062988,711.0
11.953773021697998,787.0
11.957437992095947,858.0
11.961201190948486,916.0
11.964956998825073,947.0
11.968487977981567,947.0
11.973684072494507,947.0
11.992523193359375,947.0
11.99574613571167,920.0
12.000126123428345,862.0
12.028813123703003,790.0
12.032390117645264,712.0
12.035962104797363,632.0
12.040294170379639,553.0
12.062549114227295,482.0
12.066150188446045,418.0
12.070475101470947,363.0
12.094988107681274,317.0
12.09817910194397,285.0
12.102595090866089,264.0
12.12755012512207,255.0
12.131165027618408,257.0
12.135526180267334,272.0
12.160142183303833,295.0
12.163826942443848,326.0
12.167526960372925,361.0
12.171859979629517,400.0
12.193745136260986,437.0
12.197718143463135,474.0
12.200982093811035,505.0
12.205436944961548,532.0
12.244174242019653,551.0
12.248322248458862,562.0
12.252399206161499,563.0
12.256428003311157,558.0
12.259456157684326,545.0
12.265300035476685,528.0
12.293085098266602,507.0
12.29677700996399,485.0
12.300446033477783,462.0
12.332072019577026,439.0
12.335263967514038,419.0
12.338517189025879,403.0
12.341675043106079,388.0
12.365578174591064,377.0
12.369055986404419,371.0
12.372282266616821,368.0
12.375518083572388,368.0
12.400431156158447,370.0
12.403691053390503,376.0
12.407016038894653,383.0
12.433160066604614,391.0
12.436452150344849,400.0
12.439857244491577,408.0
12.471983194351196,416.0
12.475378036499023,425.0
12.478708028793335,433.0
12.48191213607788,441.0
12.506706953048706,452.0
12.510035991668701,468.0
12.513321161270142,494.0
12.51668405532837,531.0
12.541311979293823,583.0
12.545046091079712,646.0
12.54945993423462,718.0
12.573822975158691,791.0
12.577587127685547,860.0
12.581407070159912,915.0
12.585832118988037,946.0
12.627355337142944,947.0
12.630252122879028,947.0
12.633557081222534,939.0
12.636788129806519,892.0
12.639986038208008,831.0
12.661817073822021,760.0
12.665099143981934,683.0
12.668359279632568,604.0
12.694339036941528,529.0
12.697746992111206,461.0
12.701114177703857,400.0
12.726783990859985,350.0
12.730031251907349,312.0
12.733247995376587,285.0
12.73639702796936,269.0
12.761023998260498,265.0
12.76406192779541,272.0
12.767261981964111,289.0
12.79553508758545,312.0
12.798787117004395,342.0
12.801988124847412,376.0
12.805168151855469,411.0
12.82932710647583,447.0
12.832730293273926,480.0
12.83611798286438,508.0
12.861706018447876,528.0
12.86512017250061,541.0
12.868345260620117,545.0
12.928229093551636,543.0
12.931347131729126,536.0
12.934548139572144,524.0
12.937739133834839,506.0
12.941057205200195,487.0
12.944261312484741,465.0
12.947777032852173,443.0
12.967684268951416,422.0
12.971310138702393,403.0
12.976497173309326,389.0
13.000066041946411,377.0
13.003698110580444,371.0
13.007314920425415,367.0
13.011725187301636,368.0
13.033794164657593,372.0
13.03753924369812,378.0
13.041401147842407,387.0
13.045788288116455,395.0
13.067538022994995,403.0
13.071314096450806,414.0
13.075638055801392,423.0
13.112683057785034,431.0
13.116336107254028,436.0
13.11957311630249,441.0
13.123073101043701,447.0
13.12745213508606,453.0
13.15010118484497,464.0
13.153745174407959,486.0
13.158135175704956,517.0
13.182528018951416,562.0
13.186241149902344,619.0
13.190606117248535,684.0
13.229286909103394,755.0
13.232779026031494,822.0
13.236565113067627,878.0
13.240135192871094,919.0
13.244494199752808,937.0
13.264092206954956,934.0
13.267528057098389,911.0
13.271239995956421,869.0
13.275609254837036,811.0
13.300092220306396,743.0
13.303753137588501,668.0
13.30819821357727,591.0
13.332634210586548,519.0
13.33626127243042,455.0
13.341233253479004,398.0
13.365007162094116,351.0
13.368682146072388,316.0
13.373884201049805,291.0
13.397549152374268,275.0
13.401246070861816,272.0
13.406548023223877,279.0
13.429255962371826,295.0
13.432788133621216,318.0
13.436345100402832,348.0
13.440757989883423,382.0
13.463794946670532,415.0
13.467437028884888,450.0
13.471078157424927,479.0
13.475549936294556,505.0
13.530709028244019,523.0
13.533981084823608,534.0
13.537728071212769,539.0
13.541404247283936,536.0
13.544946908950806,527.0
13.549314022064209,514.0
13.567544221878052,495.0
13.57118010520935,473.0
13.574819087982178,452.0
13.579281330108643,431.0
13.60128903388977,413.0
13.605010032653809,398.0
13.609429121017456,386.0
13.632922172546387,378.0
13.636227130889893,373.0
13.6393883228302,371.0
13.642699003219604,372.0
13.667282104492188,376.0
13.670153141021729,383.0
13.673521280288696,391.0
13.699242115020752,400.0
13.702642917633057,408.0
13.705841302871704,416.0
13.752183198928833,422.0
13.755292892456055,428.0
13.75869107246399,434.0
13.761905908584595,437.0
13.765106916427612,440.0
13.787914037704468,441.0
13.791313886642456,444.0
13.794649124145508,446.0
13.797898054122925,453.0
13.827020168304443,466.0
13.830304145812988,492.0
13.833661079406738,531.0
13.836859226226807,583.0
13.862491130828857,647.0
13.866172313690186,716.0
13.869835138320923,784.0
13.87437915802002,844.0
13.896230936050415,891.0
13.89991021156311,917.0
13.904340982437134,921.0
13.928776025772095,905.0
13.932461023330688,871.0
13.936071157455444,819.0
13.961277961730957,755.0
13.96496319770813,685.0
13.970193147659302,611.0
13.993736028671265,540.0
13.997429132461548,473.0
14.001821041107178,415.0
14.026271104812622,366.0
14.02996826171875,327.0
14.035155057907104,298.0
14.06132197380066,281.0
14.065015077590942,275.0
14.068772077560425,280.0
14.072344064712524,294.0
14.076752185821533,314.0
14.128986120223999,342.0
14.132542133331299,374.0
14.136295080184937,407.0
14.140080213546753,441.0
14.143547296524048,471.0
14.146765232086182,496.0
14.15113615989685,516.0
14.171256065368652,531.0
14.17496395111084,539.0
14.17940616607666,537.0
14.203732967376709,531.0
14.207412958145142,519.0
14.211802244186401,503.0
14.236314296722412,484.0
14.240044116973877,464.0
14.243603944778442,443.0
14.269081115722656,423.0
14.272728204727173,406.0
14.276423931121826,392.0
14.280825138092041,381.0
14.302574157714844,375.0
14.306303977966309,371.0
14.310095071792603,371.0
14.314494132995605,374.0
14.336395025253296,380.0
14.34001111984253,388.0
14.344364166259766,396.0
14.369233131408691,408.0
14.373584270477295,418.0
14.407288074493408,426.0
14.410873174667358,434.0
14.41471529006958,440.0
14.418256282806396,445.0
14.422675132751465,447.0
14.446206092834473,448.0
14.450823307037354,449.0
14.45493197441101,447.0
14.460601091384888,444.0
14.46487808227539,442.0
14.491261959075928,446.0
14.495068311691284,457.0
14.498789310455322,480.0
14.504006147384644,513.0
14.526233196258545,562.0
14.529898166656494,621.0
14.534332275390625,686.0
14.55879020690918,752.0
14.562410116195679,814.0
14.566781997680664,864.0
14.591565132141113,895.0
14.595197916030884,906.0
14.599574089050293,896.0
14.611286163330078,867.0
14.615286111831665,822.0
14.641854047775269,762.0
14.645167112350464,694.0
14.648568153381348,621.0
14.674431085586548,549.0
14.677736043930054,481.0
14.681042909622192,421.0
14.727038145065308,370.0
14.729988098144531,329.0
14.733169317245483,297.0
14.73647689819336,279.0
14.739668130874634,270.0
14.742928266525269,270.0
14.76331114768982,281.0
14.766223192214966,301.0
14.769513130187988,330.0
14.772870302200317,363.0
14.77799916267395,399.0
14.808293104171753,436.0
14.811569213867188,472.0
14.81498408317566,502.0
14.841702938079834,527.0
14.845181941986084,543.0
14.849793195724487,552.0
14.874983072280884,552.0
14.878684997558594,545.0
14.883072137832642,530.0
14.907509088516235,512.0
14.911234140396118,492.0
14.915623903274536,469.0
14.940031051635742,448.0
14.943624019622803,427.0
14.947304964065552,409.0
14.951656103134155,392.0
14.973778009414673,380.0
14.977404356002808,374.0
14.981083154678345,369.0
14.985494136810303,369.0
15.042472124099731,373.0
15.046483993530273,380.0
15.05027723312378,387.0
15.053893089294434,396.0
15.0574631690979,406.0
15.061511993408203,415.0
15.06508493423462,423.0
15.068395137786865,432.0
15.09300422668457,437.0
15.096498012542725,442.0
15.100956201553345,445.0
15.12626314163208,447.0
15.12986707687378,449.0
15.133554935455322,455.0
15.13793420791626,464.0
15.160107135772705,484.0
15.163715124130249,515.0
15.167572975158691,557.0
15.19258713722229,611.0
15.196243047714233,675.0
15.200621128082275,741.0
15.224946975708008,801.0
15.228652000427246,852.0
15.232311010360718,887.0
15.237493991851807,902.0
15.258998155593872,897.0
15.262410163879395,873.0
15.267602920532227,830.0
15.291229009628296,773.0
15.295225143432617,708.0
15.299890995025635,639.0
15.330366134643555,568.0
15.333688259124756,501.0
15.33730411529541,442.0
15.342558145523071,390.0
15.363728284835815,346.0
15.367760181427002,314.0
15.372270107269287,294.0
15.375617027282715,282.0
15.400015115737915,283.0
15.403676271438599,293.0
15.4080650806427,312.0
15.43250823020935,337.0
15.436230182647705,369.0
15.440694093704224,403.0
15.465020179748535,436.0
15.468755006790161,468.0
15.472344160079956,496.0
15.497489929199219,518.0
15.501182079315186,532.0
15.50477123260498,540.0
15.509202003479004,541.0
15.566819190979004,536.0
15.571656942367554,526.0
15.60571026802063,511.0
15.643283128738403,492.0
15.67957091331482,472.0
15.718312978744507,452.0
15.75482702255249,433.0
15.792394161224365,416.0
15.829584121704102,402.0
15.867161273956299,391.0
15.922333002090454,384.0
15.960951089859009,381.0
15.998291969299316,381.0
16.034767150878906,385.0
16.072197198867798,390.0
16.10993003845215,396.0
16.147152185440063,405.0
16.184832096099854,415.0
16.222134113311768,424.0
16.272407054901123,432.0
16.3113112449646,439.0
16.34832215309143,445.0
16.38655114173889,449.0
16.42319107055664,451.0
16.42328405380249,452.0
16.42337203025818,453.0
16.46024513244629,453.0
16.46037006378174,460.0
16.46046018600464,475.0
16.460536241531372,502.0
16.465198278427124,540.0
16.465283155441284,593.0
16.465359210968018,655.0
16.46543312072754,723.0
16.469568014144897,789.0
16.469650983810425,846.0
16.469727039337158,889.0
16.502190113067627,914.0
16.50230312347412,918.0
16.502397060394287,900.0
16.50247311592102,864.0
16.502547025680542,813.0
16.50262212753296,750.0
16.506887197494507,680.0
16.506965160369873,609.0
16.507046937942505,541.0
16.54285430908203,481.0
16.542965173721313,426.0
16.54304528236389,380.0
16.54312515258789,345.0
16.543201208114624,319.0
16.54854726791382,303.0
16.54863429069519,298.0
16.548718214035034,303.0
16.582855939865112,316.0
16.582967042922974,336.0
16.58304524421692,363.0
16.5831241607666,392.0
16.587889194488525,423.0
16.587972164154053,453.0
16.588049173355103,480.0
16.62392497062683,504.0
16.62401509284973,520.0
16.62409019470215,531.0
16.624162197113037,535.0
16.62907123565674,533.0
16.629152059555054,526.0
16.629228115081787,512.0
16.629332065582275,497.0
16.6326961517334,480.0
16.63279104232788,460.0
16.632874011993408,442.0
16.632955312728882,423.0
16.63676905632019,408.0
16.636848211288452,395.0
16.63692331314087,385.0
16.636998176574707,380.0
16.637071132659912,378.0
16.640409231185913,379.0
16.64049220085144,383.0
16.640568256378174,388.0
16.640653133392334,395.0
16.644925117492676,403.0
16.64502501487732,412.0
16.645101070404053,420.0
16.676769018173218,429.0
16.676862955093384,436.0
16.676939010620117,442.0
16.677014112472534,447.0
16.680262327194214,450.0
16.680344104766846,452.0
16.68045425415039,455.0
16.68052911758423,460.0
16.68395495414734,471.0
16.684038162231445,488.0
16.684121131896973,518.0
16.684198141098022,561.0
16.68769407272339,617.0
16.691598176956177,682.0
16.69517707824707,751.0
16.695260286331177,817.0
16.69967794418335,874.0
16.75218105316162,914.0
16.752288103103638,935.0
16.752363204956055,935.0
16.78953504562378,915.0
16.82718324661255,875.0
16.82730221748352,819.0
16.86452317237854,752.0
16.904175281524658,682.0
16.904284238815308,610.0
16.904360055923462,542.0
16.904476165771484,481.0
16.908637046813965,430.0
16.946078062057495,388.0
16.984593152999878,355.0
17.021315097808838,334.0
17.058603048324585,320.0
17.09598708152771,317.0
17.13338804244995,322.0
17.17092514038086,335.0
17.208487033843994,353.0
17.247607231140137,375.0
17.284923315048218,401.0
17.335005044937134,428.0
17.37087917327881,454.0
17.40720796585083,478.0
17.407385110855103,498.0
17.407543182373047,515.0
17.444667100906372,525.0
17.444842100143433,528.0
17.445006132125854,526.0
17.445168256759644,519.0
17.445374011993408,508.0
17.44835615158081,494.0
17.448525190353394,478.0
17.448689937591553,461.0
17.484527111053467,443.0
17.48469114303589,427.0
17.484867095947266,412.0
17.48502206802368,400.0
17.48819923400879,392.0
17.524668216705322,387.0
17.52483320236206,384.0
17.524986267089844,385.0
17.562700033187866,388.0
17.562859058380127,395.0
17.563015937805176,402.0
17.56316900253296,411.0
17.56879711151123,419.0
17.56896209716797,428.0
17.5691180229187,436.0
17.603004217147827,444.0
17.60316801071167,449.0
17.60336208343506,454.0
17.603518962860107,457.0
17.603682041168213,459.0
17.607909202575684,459.0
17.608073949813843,457.0
17.608230113983154,455.0
17.64222526550293,454.0
17.642354011535645,453.0
17.642446279525757,454.0
17.6425359249115,462.0
17.645487070083618,480.0
17.6455659866333,511.0
17.645641088485718,555.0
17.64571499824524,611.0
17.64861488342285,682.0
17.64870023727417,757.0
17.64877700805664,829.0
17.685984134674072,892.0
17.68609619140625,937.0
17.68619394302368,947.0
17.686317205429077,947.0
17.68645215034485,947.0
17.68962526321411,906.0
17.689763069152832,850.0
17.689905166625977,782.0
17.725860118865967,708.0
17.726035118103027,634.0
17.72619390487671,563.0
17.726351261138916,499.0
17.72652006149292,443.0
17.72925901412964,396.0
17.72943902015686,359.0
17.729607343673706,333.0
17.729793071746826,318.0
17.732482194900513,313.0
17.732640027999878,317.0
17.732814073562622,328.0
17.76854109764099,348.0
17.768736124038696,372.0
17.768907070159912,399.0
17.769119024276733,428.0
17.772212982177734,456.0
17.808563947677612,482.0
17.808756113052368,504.0
17.808927059173584,519.0
17.846001148223877,528.0
17.883281230926514,531.0
17.883441925048828,528.0
17.883622884750366,520.0
17.921566009521484,509.0
17.921765089035034,495.0
17.921935081481934,478.0
17.922139167785645,461.0
17.926745176315308,444.0
17.960982084274292,428.0
17.961148262023926,415.0
17.96135401725769,404.0
17.9984290599823,396.0
18.03728222846985,391.0
18.03746008872986,388.0
18.037617921829224,388.0
18.074815034866333,392.0
18.112199306488037,397.0
18.148407220840454,404.0
18.148586988449097,412.0
18.185899019241333,419.0
18.223516941070557,429.0
18.223695278167725,437.0
18.223899126052856,445.0
18.261415004730225,451.0
18.298386096954346,456.0
18.336409091949463,460.0
18.336640119552612,462.0
18.387006044387817,463.0
18.390355110168457,462.0
18.390544176101685,459.0
18.390721082687378,455.0
18.39364504814148,451.0
18.39381194114685,448.0
18.393964052200317,446.0
18.394132137298584,446.0
18.39675807952881,453.0
18.39693593978882,472.0
18.397116899490356,505.0
18.397335052490234,551.0
18.400021076202393,612.0
18.40018320083618,684.0
18.40033721923828,758.0
18.400501012802124,831.0
18.40387725830078,893.0
18.40712022781372,937.0
18.407310247421265,947.0
18.40748429298401,947.0
18.410356998443604,945.0
18.41052007675171,902.0
18.410682201385498,845.0
18.464595079421997,775.0
18.464702129364014,701.0
18.464784145355225,627.0
18.46485924720764,555.0
18.467841148376465,489.0
18.467924118041992,433.0
18.468000173568726,385.0
18.468078136444092,348.0
18.471033096313477,323.0
18.471129179000854,308.0
18.47120428085327,305.0
18.471278190612793,312.0
18.47443413734436,327.0
18.474531173706055,350.0
18.474619150161743,377.0
18.47469711303711,408.0
18.47766399383545,438.0
18.47784399986267,465.0
18.478000164031982,491.0
18.510910034179688,512.0
18.511032104492188,527.0
18.5111141204834,537.0
18.51118803024292,540.0
18.514084100723267,537.0
18.514163970947266,529.0
18.514239072799683,517.0
18.514321327209473,501.0
18.517296314239502,484.0
18.51737117767334,465.0
18.517452001571655,447.0
18.55207920074463,430.0
18.552241325378418,415.0
18.552425146102905,403.0
18.55260920524597,395.0
18.555447101593018,389.0
18.55560302734375,387.0
18.555761337280273,387.0
18.555931329727173,390.0
18.556113243103027,395.0
18.558617115020752,400.0
18.594461917877197,408.0
18.632014274597168,417.0
18.67073631286621,425.0
18.738391160964966,434.0
18.77450919151306,441.0
18.812364101409912,447.0
18.85035014152527,453.0
18.887700080871582,458.0
18.925547122955322,460.0
18.961794137954712,460.0
18.964848279953003,459.0
18.968194246292114,457.0
18.971420288085938,454.0
18.9745512008667,449.0
18.97788715362549,444.0
18.977964162826538,438.0
18.981048107147217,435.0
19.03469705581665,435.0
19.07232117652893,442.0
19.072517156600952,459.0
19.109532356262207,490.0
19.109699249267578,534.0
19.109857082366943,593.0
19.110015153884888,663.0
19.11314105987549,737.0
19.11330008506775,808.0
19.113481044769287,870.0
19.149686098098755,915.0
19.14984130859375,940.0
19.150017023086548,944.0
19.150238037109375,926.0
19.150435209274292,888.0
19.150628089904785,833.0
19.150804042816162,765.0
19.153105974197388,691.0
19.153290033340454,617.0
19.153470039367676,543.0
19.15363621711731,475.0
19.156189918518066,415.0
19.192085027694702,365.0
19.19228219985962,324.0
19.19244122505188,295.0
19.19259810447693,279.0
19.19275403022766,274.0
19.19291114807129,279.0
19.195507049560547,294.0
19.195667028427124,317.0
19.195847272872925,346.0
19.196001052856445,378.0
19.19865393638611,411.0
19.198812246322632,446.0
19.198989152908325,475.0
19.199172258377075,502.0
19.20194911956787,522.0
19.20212197303772,537.0
19.202280044555664,545.0
19.202445030212402,546.0
19.205303192138672,540.0
19.240689992904663,529.0
19.243957996368408,512.0
19.247838020324707,494.0
19.25104522705078,473.0
19.254265069961548,452.0
19.25747513771057,432.0
19.309894323349,413.0
19.310163974761963,397.0
19.31033229827881,384.0
19.310483932495117,376.0
19.313124179840088,369.0
19.313332080841064,368.0
19.313502073287964,371.0
19.349639177322388,376.0
19.385897159576416,384.0
19.386066913604736,393.0
19.386281967163086,404.0
19.422211170196533,414.0
19.46586513519287,423.0
19.50222897529602,432.0
19.50246024131775,440.0
19.502624988555908,448.0
19.53932499885559,453.0
19.5426082611084,456.0
19.546439170837402,460.0
19.549602031707764,460.0
19.552860260009766,459.0
19.555949211120605,457.0
19.61006999015808,455.0
19.647273063659668,452.0
19.684994220733643,449.0
19.72261619567871,451.0
19.759807109832764,458.0
19.797099113464355,478.0
19.834562063217163,509.0
19.834747314453125,554.0
19.834907293319702,612.0
19.83570408821106,679.0
19.835869073867798,749.0
19.836027145385742,815.0
19.836194038391113,870.0
19.836366176605225,909.0
19.839303970336914,927.0
19.839479207992554,924.0
19.839637994766235,901.0
19.842563152313232,859.0
19.842722177505493,802.0
19.84288716316223,735.0
19.84305214881897,660.0
19.84578013420105,585.0
19.84593629837036,511.0
19.846110105514526,445.0
19.846275091171265,387.0
19.849079132080078,339.0
19.849239110946655,301.0
19.849395990371704,273.0
19.852450132369995,259.0
19.854801177978516,258.0
19.85802412033081,269.0
19.979790210723877,289.0
19.98002314567566,318.0
19.980220317840576,355.0
19.980415105819702,394.0
19.980579137802124,435.0
19.980797052383423,474.0
19.980964183807373,509.0
19.981146097183228,536.0
19.981332063674927,556.0
19.981508255004883,568.0
19.981675148010254,572.0
19.981855154037476,567.0
19.982034921646118,555.0
19.982251167297363,539.0
19.98243999481201,516.0
19.98262095451355,494.0
19.982787132263184,469.0
19.983002185821533,445.0
19.983192205429077,421.0
19.983381032943726,402.0
19.98357605934143,384.0
19.98375916481018,373.0
19.983943223953247,366.0
19.98410391807556,363.0
19.984272241592407,365.0
19.984446048736572,369.0
19.984621047973633,377.0
19.984795331954956,385.0
19.98499608039856,396.0
19.985198259353638,408.0
19.985339164733887,419.0
19.985453128814697,430.0
19.985594272613525,439.0
19.985727071762085,446.0
19.98587703704834,449.0
19.985990285873413,451.0
20.01947593688965,453.0
20.05739116668701,452.0
20.094487190246582,451.0
20.131684064865112,453.0
20.135266065597534,460.0
20.13911509513855,475.0
20.1427161693573,500.0
20.146260976791382,539.0
20.150676012039185,590.0
20.204215049743652,649.0
20.23839020729065,715.0
20.276465892791748,779.0
20.314083099365234,837.0
20.350943088531494,883.0
20.38822031021118,911.0
20.42616295814514,919.0
20.464246034622192,905.0
20.4675030708313,873.0
20.4710910320282,825.0
20.47468113899231,763.0
20.479170083999634,692.0
20.534332990646362,619.0
20.538636207580566,546.0
20.573812007904053,477.0
20.610774040222168,415.0
20.64875817298889,362.0
20.68573498725891,318.0
20.72290301322937,284.0
20.723064184188843,262.0
20.723217964172363,251.0
20.72337317466736,252.0
20.723527908325195,265.0
20.7278950214386,289.0
20.72808313369751,321.0
20.728251218795776,358.0
20.76639699935913,398.0
20.766691207885742,440.0
20.766852140426636,479.0
20.767091035842896,513.0
20.769649267196655,542.0
20.76980996131897,563.0
20.769976139068604,575.0
20.77022123336792,578.0
20.774001121520996,573.0
20.774160146713257,561.0
20.774333953857422,544.0
20.80643320083618,523.0
20.80663514137268,500.0
20.806796073913574,474.0
20.80695104598999,450.0
20.811642169952393,427.0
20.81183123588562,407.0
20.81201410293579,391.0
20.812169075012207,380.0
20.816089153289795,374.0
20.849555015563965,371.0
20.885843992233276,373.0
20.92332911491394,379.0
20.96099305152893,385.0
20.998356103897095,393.0
20.998526096343994,401.0
21.034647226333618,409.0
21.034831285476685,418.0
21.03498911857605,427.0
21.03514814376831,435.0
21.03757119178772,441.0
21.037704944610596,448.0
21.03781819343567,451.0
21.040988206863403,454.0
21.041125297546387,456.0
21.04125213623047,462.0
21.041381120681763,472.0
21.044356107711792,488.0
21.044487237930298,517.0
21.04460310935974,558.0
21.044718265533447,612.0
21.047567129135132,676.0
21.04766607284546,745.0
21.047755002975464,813.0
21.047844171524048,871.0
21.050825119018555,916.0
21.054144144058228,942.0
21.05422592163086,947.0
21.05430030822754,934.0
21.057523012161255,899.0
21.061102151870728,846.0
21.06451416015625,782.0
21.064671993255615,709.0
21.118261098861694,633.0
21.15584111213684,558.0
21.19321298599243,488.0
21.193377017974854,424.0
21.230118989944458,371.0
21.230201244354248,327.0
21.23027515411377,295.0
21.230348110198975,273.0
21.235470056533813,263.0
21.235628128051758,265.0
21.23578119277954,278.0
21.23587727546692,300.0
21.23902416229248,327.0
21.239184141159058,361.0
21.239338159561157,398.0
21.239493131637573,435.0
21.24360203742981,471.0
21.24376130104065,504.0
21.243914127349854,530.0
21.275624990463257,549.0
21.27580213546753,561.0
21.27595806121826,566.0
21.276127099990845,561.0
21.280828952789307,550.0
21.31469416618347,534.0
21.35367512702942,515.0
21.357245922088623,492.0
21.361210107803345,469.0
21.364973068237305,446.0
21.36874294281006,425.0
21.373123168945312,408.0
21.423457145690918,393.0
21.46091914176941,382.0
21.49850606918335,374.0
21.498672246932983,369.0
21.535879135131836,368.0
21.536038160324097,371.0
21.536195039749146,376.0
21.536350965499878,385.0
21.539685249328613,395.0
21.53984522819519,406.0
21.540001153945923,416.0
21.576025247573853,426.0
21.613425254821777,435.0
21.65151619911194,442.0
21.655071020126343,447.0
21.65515923500061,451.0
21.659252166748047,454.0
21.662671089172363,459.0
21.66274619102478,467.0
21.66281819343567,480.0
21.66711711883545,504.0
21.667275190353394,540.0
21.66743016242981,590.0
21.667585134506226,649.0
21.72192621231079,716.0
21.725560188293457,787.0
21.761166095733643,851.0
21.798640251159668,906.0
21.835973262786865,940.0
21.872198343276978,947.0
21.908335208892822,947.0
21.90849804878235,928.0
21.908655166625977,886.0
21.908825159072876,826.0
21.91187810897827,757.0
21.9120352268219,683.0
21.91219210624695,608.0
21.91235613822937,536.0
21.91530704498291,473.0
21.91546607017517,416.0
21.915621280670166,369.0
21.915776014328003,333.0
21.91863512992859,307.0
21.954437255859375,293.0
21.954514980316162,289.0
21.954588174819946,294.0
21.957956075668335,308.0
21.958112001419067,330.0
21.95826816558838,357.0
21.958429098129272,389.0
21.961445093154907,423.0
21.961599111557007,458.0
21.961754083633423,491.0
21.961920022964478,517.0
21.965103149414062,539.0
21.968636989593506,551.0
21.97205924987793,557.0
21.976569175720215,555.0
22.0292911529541,547.0
22.032812118530273,535.0
22.03288722038269,518.0
22.067775011062622,497.0
22.06787419319153,476.0
22.06794810295105,455.0
22.06802201271057,435.0
22.07070517539978,417.0
22.07079029083252,402.0
22.07086420059204,392.0
22.070938110351562,384.0
22.073870182037354,380.0
22.073950052261353,377.0
22.074093103408813,380.0
22.1083881855011,384.0
22.108477115631104,391.0
22.108551263809204,399.0
22.10863208770752,407.0
22.11200714111328,415.0
22.112085103988647,423.0
22.112162113189697,431.0
22.14832305908203,438.0
22.185982942581177,445.0
22.223408222198486,449.0
22.261723279953003,453.0
22.261841297149658,459.0
22.265019178390503,467.0
22.268176317214966,482.0
22.27153205871582,507.0
22.274677991867065,543.0
22.278008222579956,593.0
22.281349182128906,653.0
22.334532260894775,723.0
22.37230110168457,792.0
22.40974712371826,858.0
22.409919023513794,911.0
22.410076141357422,944.0
22.447203159332275,947.0
22.486274242401123,947.0
22.523333311080933,932.0
22.52349328994751,888.0
22.559983253479004,828.0
22.56371831893921,758.0
22.563889265060425,681.0
22.564049243927002,604.0
22.567496061325073,531.0
22.567655086517334,465.0
22.567811250686646,408.0
22.567965030670166,362.0
22.57156991958618,327.0
22.5717351436615,301.0
22.571925163269043,286.0
22.572104930877686,282.0
22.575311183929443,289.0
22.575468063354492,305.0
22.575623273849487,329.0
22.57577610015869,358.0
22.579066276550293,392.0
22.584453105926514,428.0
22.63566517829895,463.0
22.63996434211731,494.0
22.67518901824951,521.0
22.712416172027588,542.0
22.748545169830322,556.0
22.78656315803528,563.0
22.78674006462097,562.0
22.786897897720337,553.0
22.787053108215332,538.0
22.79145908355713,520.0
22.7916202545166,498.0
22.791776180267334,476.0
22.791930198669434,453.0
22.79520320892334,432.0
22.79537796974182,412.0
22.795533180236816,397.0
22.82993221282959,387.0
22.830097198486328,380.0
22.830254077911377,377.0
22.830408096313477,377.0
22.83424997329712,380.0
22.834419012069702,387.0
22.83457612991333,393.0
22.83473014831543,401.0
22.837810039520264,409.0
22.837968111038208,417.0
22.838123083114624,423.0
22.841668128967285,428.0
22.845230102539062,433.0
22.848613262176514,438.0
22.852867126464844,445.0
22.905853033065796,453.0
22.94322896003723,468.0
22.979661226272583,491.0
23.017203092575073,526.0
23.05473017692566,573.0
23.05490732192993,632.0
23.055065155029297,702.0
23.05522108078003,774.0
23.05812406539917,842.0
23.058285236358643,897.0
23.058439254760742,936.0
23.058605194091797,947.0
23.061372995376587,947.0
23.0615291595459,935.0
23.06168293952942,893.0
23.097048044204712,835.0
23.09721302986145,766.0
23.097368240356445,691.0
23.097522020339966,613.0
23.10053825378418,539.0
23.14203405380249,471.0
23.14540123939514,411.0
23.14557123184204,361.0
23.145729064941406,322.0
23.148815155029297,294.0
23.151995182037354,277.0
23.155195236206055,273.0
23.15889000892639,280.0
23.21467924118042,296.0
23.250863075256348,321.0
23.28853416442871,351.0
23.324692964553833,387.0
23.32481622695923,422.0
23.324907064437866,456.0
23.32499623298645,488.0
23.328099250793457,515.0
23.32820725440979,535.0
23.32829713821411,549.0
23.36490511894226,556.0
23.365097999572754,555.0
23.3652560710907,547.0
23.365419149398804,532.0
23.365587949752808,514.0
23.3684139251709,495.0
23.368579149246216,473.0
23.36873722076416,450.0
23.404800176620483,432.0
23.443310260772705,415.0
23.446563243865967,400.0
23.446769952774048,388.0
23.450188159942627,382.0
23.453047037124634,377.0
23.45322299003601,377.0
23.453391075134277,380.0
23.453550100326538,385.0
23.4566011428833,392.0
23.459800243377686,398.0
23.46297812461853,406.0
23.466164112091064,415.0
23.519611120224,424.0
23.55712628364563,434.0
23.594529151916504,444.0
23.594608306884766,461.0
23.59468126296997,484.0
23.594755172729492,516.0
23.59482717514038,560.0
23.59839916229248,615.0
23.598472118377686,679.0
23.59854531288147,745.0
23.6352801322937,811.0
23.635355234146118,867.0
23.63542914390564,909.0
23.635502099990845,932.0
23.640602111816406,936.0
23.67587900161743,920.0
23.676043033599854,884.0
23.676197290420532,830.0
23.713788986206055,769.0
23.750380039215088,700.0
23.750548124313354,629.0
23.7507221698761,558.0
23.7540762424469,492.0
23.754236221313477,432.0
23.754391193389893,382.0
23.75454592704773,341.0
23.757848262786865,313.0
23.761579036712646,297.0
23.765302181243896,293.0
23.7691650390625,300.0
23.77398705482483,318.0
23.82603406906128,345.0
23.863790273666382,377.0
23.900824069976807,414.0
23.9383282661438,451.0
23.93849015235901,487.0
23.938660144805908,518.0
23.97449016571045,542.0
23.97466015815735,560.0
23.974817037582397,567.0
23.974973917007446,567.0
23.979056119918823,561.0
24.015820026397705,548.0
24.015980005264282,531.0
24.016135215759277,510.0
24.06452512741089,489.0
24.10211992263794,467.0
24.102296113967896,446.0
24.102452993392944,425.0
24.139129161834717,408.0
24.139292240142822,395.0
24.13944721221924,386.0
24.139601230621338,381.0
24.14430594444275,380.0
24.14446520805359,382.0
24.14462113380432,385.0
24.178304195404053,390.0
24.216961145401,396.0
24.2547709941864,404.0
24.29256296157837,415.0
24.329800128936768,426.0
24.36629319190979,442.0
24.3698091506958,464.0
24.37357211112976,497.0
24.37375020980835,544.0
24.373905897140503,603.0
24.374061107635498,671.0
24.377788305282593,742.0
24.37795114517212,811.0
24.3781099319458,870.0
24.378265142440796,913.0
24.378418922424316,937.0
24.38141417503357,939.0
24.3815860748291,920.0
24.381744146347046,880.0
24.38483214378357,827.0
24.38499116897583,762.0
24.38514518737793,688.0
24.38530993461609,614.0
24.389045000076294,543.0
24.441603183746338,477.0
24.44176411628723,417.0
24.44192099571228,367.0
24.445391178131104,328.0
24.445548057556152,299.0
24.445703268051147,283.0
24.44585609436035,279.0
24.446011304855347,284.0
24.449023008346558,301.0
24.449180126190186,325.0
24.4493350982666,354.0
24.449490070343018,387.0
24.452760219573975,422.0
24.452916145324707,457.0
24.453071117401123,487.0
24.45323395729065,514.0
24.457272052764893,534.0
24.487062215805054,546.0
24.487226247787476,550.0
24.52627730369568,548.0
24.526443004608154,539.0
24.5266010761261,526.0
24.5267550945282,508.0
24.53058409690857,487.0
24.530740976333618,468.0
24.530896186828613,448.0
24.531047105789185,429.0
24.534229040145874,412.0
24.534385204315186,399.0
24.534538984298706,389.0
24.534693241119385,383.0
24.537989139556885,379.0
24.53814721107483,379.0
24.538304090499878,382.0
24.538459300994873,387.0
24.54251718521118,393.0
24.542680263519287,401.0
24.542834997177124,407.0
24.572447061538696,412.0
24.610951900482178,418.0
24.647982120513916,424.0
24.65164613723755,430.0
24.655275106430054,438.0
24.659033060073853,450.0
24.662683248519897,472.0
24.666973114013672,504.0
24.719751358032227,552.0
24.757045030593872,612.0
24.793482065200806,681.0
24.831120252609253,753.0
24.868391036987305,824.0
24.868558168411255,882.0
24.868715047836304,923.0
24.868871212005615,941.0
24.872084140777588,938.0
24.908522129058838,913.0
24.950626134872437,868.0
24.954077005386353,806.0
24.957435131072998,734.0
24.96081018447876,657.0
24.96096897125244,580.0
24.96113610267639,509.0
24.961295127868652,444.0
24.964376211166382,391.0
24.964534044265747,347.0
24.964689254760742,314.0
24.9675772190094,293.0
24.970829248428345,284.0
24.97480297088623,285.0
25.026952981948853,297.0
25.063374280929565,317.0
25.098421096801758,343.0
25.13695216178894,374.0
25.137130975723267,406.0
25.137287139892578,441.0
25.13744306564331,473.0
25.137598037719727,499.0
25.141507148742676,519.0
25.141669273376465,533.0
25.141826152801514,540.0
25.14198112487793,541.0
25.145931005477905,535.0
25.14610528945923,523.0
25.146262168884277,507.0
25.14641809463501,487.0
25.15046215057373,466.0
25.15061926841736,445.0
25.150774002075195,424.0
25.264601230621338,406.0
25.264791011810303,391.0
25.264952182769775,379.0
25.26511001586914,372.0
25.265265941619873,369.0
25.265421152114868,371.0
25.265576124191284,375.0
25.2657310962677,383.0
25.26589608192444,391.0
25.266051054000854,400.0
25.266205072402954,409.0
25.266359090805054,417.0
25.266512155532837,425.0
25.266667127609253,432.0
25.266820192337036,438.0
25.266991138458252,442.0
25.2671480178833,445.0
25.267302989959717,448.0
25.26745295524597,451.0
25.267606019973755,455.0
25.267759084701538,463.0
25.267909288406372,480.0
25.26802110671997,506.0
25.268134117126465,545.0
25.26824712753296,597.0
25.268359184265137,659.0
25.268471240997314,727.0
25.268583059310913,792.0
25.268702030181885,850.0
25.268813133239746,891.0
25.26892614364624,912.0
25.269038200378418,911.0
25.300719261169434,888.0
25.338247299194336,848.0
25.374528169631958,792.0
25.412087202072144,726.0
25.449515104293823,655.0
25.487120151519775,581.0
25.52456307411194,512.0
25.564522981643677,451.0
25.60198402404785,396.0
25.640212059020996,352.0
25.67754817008972,319.0
25.71325707435608,295.0
25.75242304801941,285.0
25.78985023498535,284.0
25.827396154403687,293.0
25.86734104156494,312.0
25.90325617790222,340.0
25.93955898284912,372.0
25.97583532333374,406.0
26.01227116584778,441.0
26.049458026885986,473.0
26.04968023300171,502.0
26.049844980239868,524.0
26.087926149368286,539.0
26.088083028793335,546.0
26.088263273239136,546.0
26.0884211063385,539.0
26.092456102371216,526.0
26.09263801574707,510.0
26.092806339263916,491.0
26.12573218345642,470.0
26.125895977020264,449.0
26.126049041748047,430.0
26.12623429298401,411.0
26.130057096481323,397.0
26.130216121673584,387.0
26.130372285842896,381.0
26.130553245544434,380.0
26.1338050365448,381.0
26.133973121643066,386.0
26.134132146835327,392.0
26.134297132492065,400.0
26.137527227401733,409.0
26.137684106826782,419.0
26.137892246246338,429.0
26.138065338134766,438.0
26.14147424697876,444.0
26.141639232635498,449.0
26.14179301261902,454.0
26.145615100860596,456.0
26.14579200744629,457.0
26.145949125289917,457.0
26.14610528945923,455.0
26.14934015274048,453.0
26.14950919151306,455.0
26.14968204498291,464.0
26.153800010681152,481.0
26.153898000717163,511.0
26.153990268707275,552.0
26.154081106185913,605.0
26.20923614501953,668.0
26.20944905281067,732.0
26.209609031677246,792.0
26.209729194641113,843.0
26.21386408805847,879.0
26.214043140411377,892.0
26.21422815322876,885.0
26.21444010734558,858.0
26.217592239379883,814.0
26.217759132385254,756.0
26.217924118041992,689.0
26.218087911605835,618.0
26.221155166625977,548.0
26.221312999725342,483.0
26.22147512435913,424.0
26.226553201675415,375.0
26.22673797607422,336.0
26.22690510749817,307.0
26.22709012031555,289.0
26.23013210296631,284.0
26.230289936065674,288.0
26.23047399520874,303.0
26.23064112663269,325.0
26.23369312286377,353.0
26.233878135681152,388.0
26.23403811454773,425.0
26.234211206436157,460.0
26.238054990768433,493.0
26.2382230758667,520.0
26.23837900161743,540.0
26.29160499572754,551.0
26.327176094055176,556.0
26.32735013961792,553.0
26.327511072158813,543.0
26.365817070007324,527.0
26.40318012237549,509.0
26.44524121284485,489.0
26.44894528388977,467.0
26.45284104347229,446.0
26.456374168395996,426.0
26.45997905731201,407.0
26.464365243911743,392.0
26.51695203781128,381.0
26.554593086242676,375.0
26.592002153396606,374.0
26.62990427017212,375.0
26.66734004020691,380.0
26.704408168792725,387.0
26.744094133377075,398.0
26.74753427505493,408.0
26.75132703781128,419.0
26.751496076583862,431.0
26.751677989959717,440.0
26.751847982406616,448.0
26.754935026168823,453.0
26.75513505935669,457.0
26.755300283432007,459.0
26.75549817085266,459.0
26.75904893875122,457.0
26.759205102920532,455.0
26.759369134902954,451.0
26.759523153305054,450.0
26.762855052947998,453.0
26.76301598548889,462.0
26.763203144073486,480.0
26.763377904891968,508.0
26.766552209854126,549.0
26.770893096923828,598.0
26.822057008743286,655.0
26.859472274780273,710.0
26.895865201950073,759.0
26.93349003791809,797.0
26.971036195755005,822.0
26.971240043640137,828.0
26.971431016921997,816.0
26.97161030769348,787.0
26.97178602218628,745.0
26.974581003189087,691.0
26.974777221679688,630.0
26.974959135055542,565.0
27.010789155960083,503.0
27.010956048965454,443.0
27.011134147644043,389.0
27.01132607460022,342.0
27.014199018478394,306.0
27.014366149902344,280.0
27.014522314071655,263.0
27.01468801498413,260.0
27.017439126968384,267.0
27.01759696006775,282.0
27.017751216888428,307.0
27.017964124679565,338.0
27.020795106887817,374.0
27.020952224731445,413.0
27.021108150482178,451.0
27.021281003952026,488.0
27.02393126487732,519.0
27.059261083602905,544.0
27.062666177749634,561.0
27.066426277160645,570.0
27.06962513923645,571.0
27.07287096977234,563.0
27.076207160949707,548.0
27.129607915878296,529.0
27.16704511642456,508.0
27.167222023010254,484.0
27.167407274246216,459.0
27.167588233947754,436.0
27.1706120967865,416.0
27.170788288116455,399.0
27.170942068099976,386.0
27.208651065826416,379.0
27.208839178085327,376.0
27.20899724960327,376.0
27.209169149398804,380.0
27.213069200515747,385.0
27.21323800086975,393.0
27.21344017982483,402.0
27.21361994743347,412.0
27.217604160308838,422.0
27.249574184417725,432.0
27.249704122543335,440.0
27.28891611099243,446.0
27.325751066207886,451.0
27.362770080566406,455.0
27.366262197494507,458.0
27.37018918991089,461.0
27.373842000961304,463.0
27.37401008605957,471.0
27.377037048339844,484.0
27.380182027816772,506.0
27.432255029678345,537.0
27.46826720237732,577.0
27.50450301170349,626.0
27.542026042938232,678.0
27.542190074920654,732.0
27.542352199554443,780.0
27.542529106140137,818.0
27.545645236968994,842.0
27.582109928131104,849.0
27.58226728439331,842.0
27.58242106437683,817.0
27.620744943618774,777.0
27.65653419494629,726.0
27.660206079483032,669.0
27.66036820411682,607.0
27.663620233535767,543.0
27.663788080215454,482.0
27.66397714614868,427.0
27.664170026779175,377.0
27.664356231689453,337.0
27.666828155517578,306.0
27.6670081615448,287.0
27.667171239852905,280.0
27.670425176620483,284.0
27.670630931854248,300.0
27.670820236206055,327.0
27.670964002609253,360.0
27.673768997192383,399.0
27.677881240844727,441.0
27.681132078170776,481.0
27.73344326019287,517.0
27.771106243133545,547.0
27.808399200439453,572.0
27.845908164978027,587.0
27.846086263656616,592.0
27.846254110336304,589.0
27.84640908241272,578.0
27.849215984344482,561.0
27.8494291305542,539.0
27.849653005599976,514.0
27.849818229675293,487.0
27.852829933166504,460.0
27.85299301147461,438.0
27.85316824913025,417.0
27.85340905189514,400.0
27.85610294342041,387.0
27.890841245651245,379.0
27.89101219177246,376.0
27.89117121696472,375.0
27.929157257080078,377.0
27.929338216781616,383.0
27.929501056671143,389.0
27.929670333862305,397.0
27.933613061904907,405.0
27.93379521369934,413.0
27.93395209312439,422.0
27.93770122528076,433.0
27.94180417060852,446.0
27.945499181747437,464.0
27.950654983520508,491.0
28.002353191375732,527.0
28.04006814956665,576.0
28.078047037124634,633.0
28.115783214569092,698.0
28.151063203811646,764.0
28.151286125183105,825.0
28.15146017074585,876.0
28.151641130447388,909.0
28.156753301620483,926.0
28.15692901611328,921.0
28.15712809562683,898.0
28.192017316818237,857.0
28.192209243774414,800.0
28.192386150360107,735.0
28.192548274993896,662.0
28.195908069610596,588.0
28.230639219284058,517.0
28.2671480178833,452.0
28.27078914642334,393.0
28.307132959365845,344.0
28.307302236557007,305.0
28.30748414993286,278.0
28.30768632888794,263.0
28.307870149612427,259.0
28.31126308441162,268.0
28.344252347946167,287.0
28.347635984420776,316.0
28.351298093795776,352.0
28.354801893234253,392.0
28.358509063720703,434.0
28.36191415786743,474.0
28.36199712753296,511.0
28.362072229385376,543.0
28.362146139144897,569.0
28.365475177764893,583.0
28.365559101104736,590.0
28.36567711830139,590.0
28.365859270095825,582.0
28.369147300720215,568.0
28.369230270385742,547.0
28.369315147399902,524.0
28.369391202926636,500.0
28.372714042663574,476.0
28.372797966003418,454.0
28.372873067855835,434.0
28.372948169708252,417.0
28.37707209587097,404.0
28.38045310974121,396.0
28.380537271499634,390.0
28.38061213493347,387.0
28.383962154388428,387.0
28.387577056884766,389.0
28.38766121864319,393.0
28.391367197036743,398.0
28.39145803451538,404.0
28.39153528213501,412.0
28.391610145568848,421.0
28.395004272460938,433.0
28.39878821372986,450.0
28.39887523651123,475.0
28.398951053619385,512.0
28.402507066726685,562.0
28.406336069107056,623.0
28.406427145004272,694.0
28.406502962112427,768.0
28.410115242004395,839.0
28.413795232772827,900.0
28.417579174041748,942.0
28.421306133270264,947.0
28.42494511604309,947.0
28.428513050079346,947.0
28.432937145233154,909.0
28.45133900642395,852.0
28.454745054244995,783.0
28.459904193878174,705.0
28.483572959899902,626.0
28.487104177474976,548.0
28.491549015045166,477.0
28.511157035827637,413.0
28.514686107635498,360.0
28.519054174423218,319.0
28.5437171459198,290.0
28.54729127883911,272.0
28.551632165908813,267.0
28.57623600959778,273.0
28.57982611656189,291.0
28.579909086227417,316.0
28.58307409286499,350.0
28.608814239501953,389.0
28.612915992736816,430.0
28.61727523803711,469.0
28.64773416519165,505.0
28.651201009750366,537.0
28.654903173446655,562.0
28.6600821018219,577.0
28.681156158447266,584.0
28.684550285339355,583.0
28.688658952713013,575.0
28.713581085205078,560.0
28.71724510192871,541.0
28.72161316871643,519.0
28.7462260723114,496.0
28.74988603591919,472.0
28.754310131072998,450.0
28.778682231903076,431.0
28.782426118850708,415.0
28.786463022232056,401.0
28.789911031723022,390.0
28.812387228012085,384.0
28.81596326828003,382.0
28.819613933563232,381.0
28.823995113372803,382.0
28.84613823890686,386.0
28.85001516342163,391.0
28.854502201080322,396.0
28.88115406036377,403.0
28.88473916053772,411.0
28.888841152191162,422.0
28.946383237838745,434.0
28.949796199798584,452.0
28.953490018844604,479.0
28.95721125602722,519.0
28.960963249206543,572.0
28.964606046676636,635.0
28.96808409690857,706.0
28.972989082336426,781.0
28.99129295349121,850.0
28.99437117576599,910.0
28.997926950454712,946.0
29.002286195755005,947.0
29.026087999343872,947.0
29.029744148254395,947.0
29.03410506248474,900.0
29.0587420463562,840.0
29.062358140945435,768.0
29.066697120666504,689.0
29.091231107711792,608.0
29.094545125961304,531.0
29.098620176315308,460.0
29.12365221977234,397.0
29.12726092338562,345.0
29.13158106803894,305.0
29.15628433227539,277.0
29.159770250320435,260.0
29.164173126220703,259.0
29.188590049743652,268.0
29.192201137542725,288.0
29.196187257766724,316.0
29.199397087097168,352.0
29.247681140899658,392.0
29.25121808052063,433.0
29.254736185073853,473.0
29.25824213027954,510.0
29.26187014579773,540.0
29.26435899734497,562.0
29.26793599128723,576.0
29.272350072860718,583.0
29.29616618156433,581.0
29.29942035675049,571.0
29.30380916595459,553.0
29.326204299926758,532.0
29.330726146697998,509.0
29.357449054718018,483.0
29.36099410057068,456.0
29.36456298828125,434.0
29.368945121765137,415.0
29.39117431640625,398.0
29.39479398727417,387.0
29.398402214050293,381.0
29.417295217514038,377.0
29.420917987823486,379.0
29.425345182418823,383.0
29.44983196258545,390.0
29.453598022460938,398.0
29.458802938461304,408.0
29.48254108428955,416.0
29.486045122146606,426.0
29.49127197265625,435.0
29.551395177841187,444.0
29.554887294769287,451.0
29.558500289916992,459.0
29.562507152557373,471.0
29.56610608100891,490.0
29.569815158843994,519.0
29.57336401939392,559.0
29.57852602005005,612.0
29.59735107421875,677.0
29.601328134536743,747.0
29.605711221694946,816.0
29.608867168426514,877.0
29.63285207748413,921.0
29.636012077331543,943.0
29.639201164245605,947.0
29.642340183258057,929.0
29.666853189468384,890.0
29.670107126235962,834.0
29.67335820198059,764.0
29.69925308227539,689.0
29.702617168426514,611.0
29.70588707923889,535.0
29.731589317321777,464.0
29.73509931564331,401.0
29.740410089492798,350.0
29.765095949172974,308.0
29.768553972244263,279.0
29.77296018600464,262.0
29.797473192214966,255.0
29.80093216896057,262.0
29.80420422554016,280.0
29.807496070861816,308.0
29.844539165496826,344.0
29.847675323486328,385.0
29.8514301776886,429.0
29.854894161224365,471.0
29.858217000961304,508.0
29.880380153656006,537.0
29.88408613204956,560.0
29.88748025894165,575.0
29.91781520843506,579.0
29.92097806930542,575.0
29.924236059188843,563.0
29.927383184432983,547.0
29.965686082839966,526.0
29.968929052352905,502.0
29.972302198410034,477.0
29.9755802154541,454.0
29.97916603088379,432.0
30.001583099365234,414.0
30.004966259002686,400.0
30.00846529006958,389.0
30.03491997718811,382.0
30.03861927986145,379.0
30.043843269348145,381.0
30.067429304122925,386.0
30.07110619544983,393.0
30.0748291015625,404.0
30.079209089279175,414.0
30.101346015930176,423.0
30.10494899749756,433.0
30.109294176101685,442.0
30.132793188095093,448.0
30.136154174804688,453.0
30.13945722579956,456.0
30.166397094726562,459.0
30.16983413696289,462.0
30.17357611656189,470.0
30.17788004875183,483.0
30.21889305114746,506.0
30.221837043762207,540.0
30.22520923614502,588.0
30.22832703590393,645.0
30.231537342071533,708.0
30.252997159957886,771.0
30.25611400604248,826.0
30.25940203666687,870.0
30.285521268844604,894.0
30.288889169692993,900.0
30.2920880317688,886.0
30.295339107513428,852.0
30.319175243377686,803.0
30.322519063949585,742.0
30.32598090171814,672.0
30.352925062179565,600.0
30.356293201446533,527.0
30.35973620414734,460.0
30.38544511795044,399.0
30.388680934906006,348.0
30.391906023025513,307.0
30.395102977752686,278.0
30.419174194335938,261.0
30.422580003738403,255.0
30.42597198486328,262.0
30.452380895614624,278.0
30.45610022544861,304.0
30.460483074188232,337.0
30.51783299446106,374.0
30.521619081497192,415.0
30.52519917488098,454.0
30.528659105300903,490.0
30.53184223175049,520.0
30.53552007675171,544.0
30.539242029190063,559.0
30.542916297912598,564.0
30.547218084335327,564.0
30.569891214370728,557.0
30.57357430458069,543.0
30.57796621322632,525.0
30.606269121170044,504.0
30.609830141067505,481.0
30.613415956497192,457.0
30.61857795715332,433.0
30.63989520072937,413.0
30.643579244613647,395.0
30.647964239120483,380.0
30.672401905059814,369.0
30.67610216140747,362.0
30.68049716949463,360.0
30.704901218414307,363.0
30.70855402946472,367.0
30.712250232696533,375.0
30.716646909713745,384.0
30.738678216934204,394.0
30.74238419532776,404.0
30.746641159057617,414.0
30.771095037460327,423.0
30.774845123291016,430.0
30.779179096221924,438.0
30.81890106201172,444.0
30.822418928146362,453.0
30.826203107833862,467.0
30.829719066619873,486.0
30.834667205810547,514.0
30.853623151779175,553.0
30.85736393928528,603.0
30.861772060394287,660.0
30.886173009872437,718.0
30.889876127243042,775.0
30.89426898956299,824.0
30.91868805885315,857.0
30.922396183013916,875.0
30.92680811882019,872.0
30.92697811126709,850.0
30.951153993606567,812.0
30.95483112335205,761.0
30.959259271621704,700.0
30.983624935150146,632.0
30.987285137176514,563.0
30.990886211395264,494.0
30.995299100875854,432.0
31.01741909980774,377.0
31.021042108535767,329.0
31.025418996810913,292.0
31.048962116241455,267.0
31.052430152893066,253.0
31.055569887161255,253.0
31.081611156463623,263.0
31.085201263427734,285.0
31.088593244552612,316.0
31.124239206314087,353.0
31.127265214920044,394.0
31.130529165267944,435.0
31.133949995040894,475.0
31.137132167816162,509.0
31.159358978271484,537.0
31.162522077560425,556.0
31.165948152542114,566.0
31.191684246063232,567.0
31.194794178009033,559.0
31.19792413711548,546.0
31.245663166046143,525.0
31.248916149139404,502.0
31.25253415107727,478.0
31.25584626197815,453.0
31.258790254592896,431.0
31.26299810409546,411.0
31.283656120300293,395.0
31.287303924560547,383.0
31.29167413711548,375.0
31.3162202835083,368.0
31.319918155670166,366.0
31.32438015937805,368.0
31.347822189331055,371.0
31.351149082183838,376.0
31.354918956756592,383.0
31.35926914215088,391.0
31.382742166519165,399.0
31.386652946472168,407.0
31.391072988510132,415.0
31.420114040374756,422.0
31.423802137374878,429.0
31.427516222000122,438.0
31.431917190551758,450.0
31.45366621017456,469.0
31.45766806602478,497.0
31.46242618560791,535.0
31.46772313117981,581.0
31.49368405342102,637.0
31.49732518196106,699.0
31.501695156097412,759.0
31.52609419822693,811.0
31.529783010482788,850.0
31.534189224243164,873.0
31.557674169540405,876.0
31.561047077178955,861.0
31.564263105392456,828.0
31.564444303512573,779.0
31.590368032455444,718.0
31.59368395805359,651.0
31.596935987472534,579.0
31.622836112976074,510.0
31.62610626220703,445.0
31.629273176193237,387.0
31.632460117340088,337.0
31.656601190567017,298.0
31.659954071044922,269.0
31.663138151168823,252.0
31.71804714202881,246.0
31.721116304397583,253.0
31.724342107772827,270.0
31.727570056915283,298.0
31.73075008392334,333.0
31.734021186828613,374.0
31.754181146621704,416.0
31.75744104385376,459.0
31.760656118392944,498.0
31.787516355514526,530.0
31.791210174560547,555.0
31.794950246810913,569.0
31.799377918243408,575.0
31.821126222610474,572.0
31.825171947479248,562.0
31.8298921585083,545.0
31.835273027420044,524.0
31.860501050949097,501.0
31.864535093307495,476.0
31.86899209022522,452.0
31.914095163345337,431.0
31.91426110267639,411.0
31.91443419456482,393.0
31.91763997077942,381.0
31.922062158584595,373.0
31.94732904434204,368.0
31.951029062271118,368.0
31.95544409751892,369.0
31.979852199554443,374.0
31.983843088150024,380.0
31.98791193962097,389.0
31.98807716369629,397.0
32.02256631851196,407.0
32.02613091468811,418.0
32.02986288070679,429.0
32.03342604637146,441.0
32.03781819343567,455.0
32.05739712715149,478.0
32.061079025268555,509.0
32.06436729431152,551.0
32.089325189590454,604.0
32.092602252960205,668.0
32.095887184143066,733.0
32.12161111831665,797.0
32.124920129776,852.0
32.128119230270386,894.0
32.15420913696289,919.0
32.1574490070343,922.0
32.160656213760376,905.0
32.18672204017639,867.0
32.19010519981384,813.0
32.19343018531799,748.0
32.21911311149597,677.0
32.222352266311646,603.0
32.22552514076233,529.0
32.22877812385559,460.0
32.25309228897095,399.0
32.256235122680664,349.0
32.25956320762634,311.0
32.26275014877319,285.0
32.31879210472107,275.0
32.322389125823975,278.0
32.32612919807434,295.0
32.329856157302856,325.0
32.333402156829834,364.0
32.33829307556152,410.0
32.35736393928528,456.0
32.36102604866028,505.0
32.36472296714783,547.0
32.36830019950867,581.0
32.39115810394287,607.0
32.395188093185425,622.0
32.40001726150513,625.0
32.42615604400635,617.0
32.42976713180542,602.0
32.43347096443176,579.0
32.437793016433716,549.0
32.459909200668335,519.0
32.46356415748596,486.0
32.468849182128906,455.0
32.492435932159424,426.0
32.49613308906555,402.0
32.50056505203247,383.0
32.526079177856445,368.0
32.529749155044556,358.0
32.53344202041626,353.0
32.53786611557007,353.0
32.55985999107361,357.0
32.56356406211853,364.0
32.56803822517395,375.0
32.6188280582428,385.0
32.62238526344299,399.0
32.62617230415344,413.0
32.629855155944824,429.0
32.633591175079346,447.0
32.637213945388794,468.0
32.6416072845459,498.0
32.66111707687378,536.0
32.66485929489136,587.0
32.66925024986267,648.0
32.693634033203125,715.0
32.697301149368286,784.0
32.70092797279358,847.0
32.70539116859436,897.0
32.72732591629028,930.0
32.73103213310242,942.0
32.736303091049194,932.0
32.75995922088623,901.0
32.763601303100586,852.0
32.76832628250122,787.0
32.79165315628052,711.0
32.79486703872681,632.0
32.79796814918518,554.0
32.824220180511475,481.0
32.827489137649536,415.0
32.83093309402466,359.0
32.85654020309448,314.0
32.8629891872406,281.0
32.863147020339966,259.0
32.86623215675354,250.0
32.91688013076782,252.0
32.920130014419556,266.0
32.92337727546692,289.0
32.92667603492737,321.0
32.92978000640869,359.0
32.93298006057739,400.0
32.95664620399475,441.0
32.95987606048584,479.0
32.96313118934631,512.0
32.966352224349976,539.0
32.99022912979126,559.0
32.99379825592041,571.0
32.99720811843872,573.0
33.02369427680969,567.0
33.02734899520874,553.0
33.03178906440735,536.0
33.05613422393799,513.0
33.059765100479126,490.0
33.0634081363678,465.0
33.067835330963135,442.0
33.08904027938843,422.0
33.09260702133179,405.0
33.097084283828735,391.0
33.12237524986267,382.0
33.12614297866821,378.0
33.13050603866577,376.0
33.1896710395813,377.0
33.192798137664795,381.0
33.19635200500488,387.0
33.20013117790222,394.0
33.20362710952759,401.0
33.20720911026001,410.0
33.21127510070801,418.0
33.26478815078735,427.0
33.30183410644531,435.0
33.33941102027893,446.0
33.37694525718689,464.0
33.41445207595825,492.0
33.45240497589111,531.0
33.489466190338135,584.0
33.526997089385986,649.0
33.564356088638306,723.0
33.60073494911194,798.0
33.63953900337219,866.0
33.67706227302551,918.0
33.714357137680054,947.0
33.75223517417908,947.0
33.7893602848053,947.0
33.827399253845215,915.0
33.866294145584106,861.0
33.91306710243225,792.0
33.949564933776855,713.0
33.9856481552124,632.0
34.022298097610474,551.0
34.058603048324585,478.0
34.058704137802124,414.0
34.09563708305359,360.0
34.095739126205444,318.0
34.09582018852234,287.0
34.132880210876465,269.0
34.132973194122314,264.0
34.133050203323364,270.0
34.1331262588501,286.0
34.13321232795715,309.0
34.138482093811035,341.0
34.13857102394104,377.0
34.13864612579346,415.0
34.172582149505615,452.0
34.17273807525635,486.0
34.17282199859619,512.0
34.17291212081909,533.0
34.177011013031006,547.0
34.17710208892822,553.0
34.17717623710632,551.0
34.17725110054016,541.0
34.181294202804565,527.0
34.18139696121216,508.0
34.18152713775635,485.0
34.2145721912384,462.0
34.21466398239136,438.0
34.21477007865906,416.0
34.21486711502075,396.0
34.21494507789612,380.0
34.219789028167725,368.0
34.21986722946167,361.0
34.219940185546875,358.0
34.26307725906372,358.0
34.263227224349976,360.0
34.26330614089966,366.0
34.26338219642639,373.0
34.26688098907471,380.0
34.26698708534241,390.0
34.26706314086914,399.0
34.270350217819214,408.0
34.27043628692627,417.0
34.27051115036011,425.0
34.270586252212524,432.0
34.27399015426636,441.0
34.27409529685974,450.0
34.274171113967896,464.0
34.27425408363342,487.0
34.27788805961609,519.0
34.27797603607178,564.0
34.27805018424988,622.0
34.2781240940094,689.0
34.27819800376892,759.0
34.2819709777832,824.0
34.28205227851868,880.0
34.28214192390442,919.0
34.28222608566284,935.0
34.285574197769165,931.0
34.285656213760376,903.0
34.285731077194214,857.0
34.28995418548584,793.0
34.290061235427856,720.0
34.290138244628906,643.0
34.29021120071411,567.0
34.34461212158203,495.0
34.34472298622131,432.0
34.34481406211853,379.0
34.380131244659424,337.0
34.38023114204407,306.0
34.380309104919434,287.0
34.380393981933594,279.0
34.38435101509094,282.0
34.38445711135864,295.0
34.38453197479248,316.0
34.38462018966675,342.0
34.388729095458984,373.0
34.42074918746948,407.0
34.42085003852844,441.0
34.420926094055176,472.0
34.45699906349182,500.0
34.49454593658447,522.0
34.53201222419739,539.0
34.5321159362793,545.0
34.56940507888794,547.0
34.62183618545532,541.0
34.62194609642029,527.0
34.62202215194702,510.0
34.62211894989014,489.0
34.62545323371887,467.0
34.672375202178955,446.0
34.708683013916016,425.0
34.744675159454346,407.0
34.77975296974182,393.0
34.81593608856201,383.0
34.85339331626892,375.0
34.890886306762695,371.0
34.92823815345764,372.0
34.928401947021484,375.0
34.928577184677124,378.0
34.92873501777649,385.0
34.93200421333313,392.0
34.98203706741333,400.0
35.02087211608887,408.0
35.02103304862976,415.0
35.05854797363281,422.0
35.05872893333435,427.0
35.058887243270874,432.0
35.09562921524048,436.0
35.09580421447754,439.0
35.095964193344116,441.0
35.09611916542053,448.0
35.09920001029968,461.0
35.099366903305054,483.0
35.099528074264526,516.0
35.09968304634094,561.0
35.102519035339355,619.0
35.102678060531616,685.0
35.10283327102661,750.0
35.10298705101013,809.0
35.10640215873718,857.0
35.10655903816223,888.0
35.10671520233154,897.0
35.10686802864075,886.0
35.10702204704285,855.0
35.10977530479431,807.0
35.14307999610901,745.0
35.14324712753296,675.0
35.14340400695801,601.0
35.14356994628906,531.0
35.14689302444458,464.0
35.147064208984375,406.0
35.14722204208374,354.0
35.183247089385986,314.0
35.18341398239136,285.0
35.183571100234985,267.0
35.1837260723114,260.0
35.1866660118103,265.0
35.186827182769775,280.0
35.18698215484619,304.0
35.187138080596924,335.0
35.18998312950134,370.0
35.190141916275024,408.0
35.19029712677002,445.0
35.22570610046387,479.0
35.225868225097656,507.0
35.226025104522705,529.0
35.22617816925049,543.0
35.22911620140076,551.0
35.22927212715149,549.0
35.229427099227905,540.0
35.229594230651855,527.0
35.23237109184265,509.0
35.23253512382507,488.0
35.23269295692444,467.0
35.26948308944702,445.0
35.33411717414856,424.0
35.33430314064026,406.0
35.33445930480957,391.0
35.3346152305603,380.0
35.334770917892456,372.0
35.338176012039185,369.0
35.338340282440186,370.0
35.338497161865234,375.0
35.33865308761597,380.0
35.3414740562439,388.0
35.341631174087524,399.0
35.34178709983826,408.0
35.375293016433716,419.0
35.375452280044556,429.0
35.37560820579529,436.0
35.37576198577881,442.0
35.3806369304657,448.0
35.416011095047,452.0
35.45326209068298,455.0
35.490729093551636,459.0
35.52825117111206,465.0
35.56445503234863,478.0
35.60216808319092,499.0
35.60233807563782,533.0
35.60249924659729,579.0
35.63960123062134,636.0
35.68199300765991,699.0
35.71830415725708,762.0
35.71847724914551,819.0
35.7546329498291,864.0
35.79212427139282,892.0
35.82964730262756,900.0
35.82983708381653,887.0
35.86714220046997,854.0
35.867329120635986,805.0
35.867494344711304,743.0
35.867648124694824,675.0
35.86781597137451,603.0
35.867995262145996,532.0
35.86815690994263,465.0
35.87069320678711,406.0
35.90714406967163,355.0
35.94453001022339,315.0
35.94462609291077,284.0
35.98197603225708,266.0
36.03197121620178,259.0
36.03213429450989,266.0
36.032289028167725,284.0
36.06828331947327,310.0
36.068445920944214,344.0
36.06860113143921,382.0
36.06877112388611,423.0
36.071722984313965,463.0
36.07188010215759,499.0
36.07203507423401,529.0
36.072190046310425,550.0
36.07504916191101,564.0
36.07520508766174,569.0
36.075369119644165,563.0
36.109509229660034,553.0
36.1096670627594,536.0
36.1098210811615,514.0
36.10997414588928,489.0
36.1130051612854,464.0
36.11316204071045,441.0
36.11332416534424,419.0
36.11351203918457,401.0
36.116496324539185,386.0
36.11665201187134,376.0
36.11680626869202,371.0
36.11696100234985,371.0
36.12026810646057,372.0
36.12042307853699,377.0
36.1205792427063,384.0
36.12073111534119,393.0
36.12351703643799,404.0
36.123674154281616,414.0
36.12382793426514,425.0
36.15704607963562,433.0
36.15723919868469,441.0
36.15739917755127,447.0
36.157557010650635,454.0
36.16039824485779,462.0
36.160561323165894,475.0
36.160720109939575,497.0
36.16087603569031,530.0
36.16419816017151,576.0
36.164366245269775,632.0
36.16452717781067,697.0
36.16468524932861,762.0
36.16745615005493,824.0
36.16762399673462,872.0
36.16778111457825,903.0
36.203301191329956,915.0
36.24057221412659,905.0
36.24066519737244,874.0
36.24073910713196,825.0
36.278822898864746,762.0
36.27899718284607,691.0
36.27915406227112,618.0
36.2793231010437,545.0
36.28302311897278,478.0
36.28319001197815,418.0
36.28334712982178,366.0
36.28350210189819,325.0
36.286736249923706,295.0
36.28689217567444,273.0
36.28704810142517,264.0
36.28721904754639,267.0
36.28737115859985,280.0
36.29035806655884,303.0
36.29051494598389,333.0
36.290669202804565,369.0
36.2908239364624,407.0
36.294841289520264,446.0
36.32473921775818,480.0
36.385069131851196,510.0
36.38525700569153,534.0
36.42108917236328,549.0
36.45727896690369,556.0
36.492080211639404,555.0
36.53089427947998,547.0
36.53106117248535,534.0
36.53121900558472,515.0
36.53137516975403,495.0
36.53152894973755,472.0
36.531694173812866,448.0
36.53185510635376,428.0
36.53201222419739,410.0
36.53216624259949,395.0
36.5323212146759,384.0
36.532472133636475,376.0
36.53262710571289,373.0
36.53278112411499,374.0
36.532936096191406,379.0
36.53309226036072,385.0
36.533244132995605,395.0
36.53339910507202,404.0
36.53355312347412,414.0
36.53371715545654,423.0
36.5338351726532,432.0
36.533947229385376,440.0
36.534064292907715,448.0
36.534175157547,456.0
36.53428816795349,468.0
36.534401178359985,484.0
36.5345139503479,510.0
36.534627199172974,547.0
36.53473997116089,596.0
36.53485321998596,660.0
36.53496503829956,732.0
36.535078287124634,805.0
36.56706523895264,872.0
36.60458493232727,924.0
36.641969203948975,947.0
36.679868936538696,947.0
36.73326015472412,947.0
36.770923137664795,936.0
36.808141231536865,888.0
36.845540285110474,824.0
36.883522033691406,754.0
36.920669078826904,678.0
36.958126068115234,604.0
36.995652198791504,535.0
37.03366827964783,474.0
37.08196711540222,421.0
37.08535408973694,379.0
37.0891010761261,346.0
37.092663049697876,326.0
37.09672927856445,314.0
37.10043907165527,312.0
37.105035066604614,320.0
37.15700316429138,336.0
37.15717625617981,358.0
37.15733194351196,385.0
37.194183349609375,415.0
37.19434714317322,447.0
37.19450330734253,475.0
37.194658041000366,500.0
37.194812297821045,519.0
37.19891834259033,534.0
37.19907522201538,542.0
37.1992290019989,543.0
37.1993842124939,536.0
37.20355010032654,525.0
37.20378923416138,510.0
37.20394802093506,490.0
37.2375009059906,470.0
37.237669229507446,450.0
37.23782300949097,431.0
37.237977266311646,414.0
37.24188494682312,400.0
37.242043256759644,389.0
37.242197036743164,382.0
37.242353200912476,378.0
37.24553608894348,377.0
37.24569392204285,382.0
37.24585223197937,388.0
37.2460081577301,398.0
37.25086307525635,409.0
37.25098705291748,421.0
37.25110197067261,432.0
37.280933141708374,441.0
37.2810320854187,448.0
37.28118014335632,453.0
37.281344175338745,455.0
37.28634810447693,457.0
37.286513328552246,458.0
37.28667902946472,461.0
37.28684115409851,467.0
37.289841175079346,480.0
37.28999924659729,507.0
37.29015398025513,547.0
37.29030919075012,602.0
37.29046416282654,666.0
37.293957233428955,737.0
37.29794716835022,806.0
37.301706075668335,864.0
37.306313037872314,903.0
37.35663414001465,923.0
37.36195111274719,920.0
37.39321804046631,896.0
37.43284010887146,854.0
37.43300414085388,797.0
37.43316197395325,731.0
37.43331718444824,660.0
37.43856692314148,591.0
37.471938133239746,524.0
37.509437084198,466.0
37.50953030586243,416.0
37.54684615135193,375.0
37.584299087524414,344.0
37.621819257736206,322.0
37.65986108779907,311.0
37.695738077163696,308.0
37.73444104194641,313.0
37.785064935684204,327.0
37.821911096572876,347.0
37.85936427116394,371.0
37.8968231678009,399.0
37.93444013595581,427.0
37.97198414802551,453.0
37.97214698791504,477.0
38.00946116447449,497.0
38.00961995124817,511.0
38.00980997085571,521.0
38.046720027923584,526.0
38.04690909385681,524.0
38.04707098007202,515.0
38.04723405838013,504.0
38.05282425880432,489.0
38.08695030212402,472.0
38.08712601661682,454.0
38.087279081344604,436.0
38.13447117805481,419.0
38.134634017944336,403.0
38.134807109832764,391.0
38.17249321937561,382.0
38.17266011238098,377.0
38.1728150844574,376.0
38.17297101020813,379.0
38.17691707611084,384.0
38.17707109451294,392.0
38.177226066589355,403.0
38.17737913131714,414.0
38.18045711517334,425.0
38.18061327934265,436.0
38.180766105651855,446.0
38.180933237075806,455.0
38.18493413925171,462.0
38.18509006500244,466.0
38.185243129730225,467.0
38.21653604507446,467.0
38.21670317649841,467.0
38.21685814857483,464.0
38.21701407432556,459.0
38.22171902656555,454.0
38.22188210487366,449.0
38.22203612327576,447.0
38.22219109535217,449.0
38.225544929504395,462.0
38.22570610046387,487.0
38.22586011886597,527.0
38.22601294517517,581.0
38.226168155670166,648.0
38.22919702529907,721.0
38.22936129570007,794.0
38.22951817512512,860.0
38.229671001434326,911.0
38.23391628265381,939.0
38.23408007621765,945.0
38.23423624038696,930.0
38.26343131065369,893.0
38.26352119445801,838.0
38.26359415054321,770.0
38.26366710662842,695.0
38.26952505111694,620.0
38.26967406272888,547.0
38.26974701881409,480.0
38.269819259643555,422.0
38.273253202438354,374.0
38.2734112739563,337.0
38.273566007614136,312.0
38.2736451625824,298.0
38.27690291404724,294.0
38.27705907821655,302.0
38.27721309661865,317.0
38.27736806869507,340.0
38.28129005432129,368.0
38.28144693374634,400.0
38.281556129455566,432.0
38.31074905395508,462.0
38.349210262298584,490.0
38.34928894042969,513.0
38.349361181259155,530.0
38.386659145355225,540.0
38.38684916496277,543.0
38.3870050907135,540.0
38.38716006278992,531.0
38.387333154678345,515.0
38.39138722419739,499.0
38.3915581703186,480.0
38.391717195510864,458.0
38.39187526702881,436.0
38.39586305618286,416.0
38.42824912071228,399.0
38.48322010040283,385.0
38.51938319206238,376.0
38.555734157562256,369.0
38.59197211265564,366.0
38.62954807281494,368.0
38.66829514503479,373.0
38.70574593544006,380.0
38.743144035339355,390.0
38.78103303909302,401.0
38.83573317527771,412.0
38.87202835083008,424.0
38.908149003982544,435.0
38.94438409805298,445.0
38.944547176361084,454.0
38.94470024108887,461.0
38.980093002319336,466.0
38.98027014732361,468.0
38.98042607307434,468.0
38.980581283569336,467.0
38.98528003692627,463.0
39.02066111564636,459.0
39.05808901786804,454.0
39.058249950408936,450.0
39.09544515609741,446.0
39.095611333847046,449.0
39.0957670211792,457.0
39.09593415260315,477.0
39.096092224121094,511.0
39.096248149871826,558.0
39.10113716125488,617.0
39.10129523277283,684.0
39.10145115852356,751.0
39.135146141052246,814.0
39.13530611991882,864.0
39.135462284088135,897.0
39.135616064071655,910.0
39.140465259552,901.0
39.140621185302734,872.0
39.140774965286255,826.0
39.144169092178345,765.0
39.14432621002197,697.0
39.14447999000549,624.0
39.14463520050049,551.0
39.144787073135376,486.0
39.148715019226074,425.0
39.148874044418335,373.0
39.14903020858765,332.0
39.18311309814453,302.0
39.18330717086792,281.0
39.18347215652466,272.0
39.18363404273987,275.0
39.1867241859436,289.0
39.18688726425171,310.0
39.18704319000244,338.0
39.18719696998596,371.0
39.19102215766907,408.0
39.19118523597717,444.0
39.191341161727905,479.0
39.19515109062195,508.0
39.19533610343933,532.0
39.195494174957275,548.0
39.19565010070801,557.0
39.19580602645874,558.0
39.19596314430237,552.0
39.19968795776367,539.0
39.19984793663025,520.0
39.200003147125244,500.0
39.20015621185303,478.0
39.20387625694275,456.0
39.20403504371643,434.0
39.20419096946716,415.0
39.208773136138916,398.0
39.208930015563965,384.0
39.209081172943115,374.0
39.20923614501953,368.0
39.26458024978638,368.0
39.26478695869446,370.0
39.264973163604736,375.0
39.26776123046875,384.0
39.30429410934448,394.0
39.3045072555542,405.0
39.30470609664917,417.0
39.304909229278564,427.0
39.30775499343872,438.0
39.30793309211731,446.0
39.30813431739807,452.0
39.30830693244934,456.0
39.31142807006836,459.0
39.31158399581909,459.0
39.31179404258728,458.0
39.31502604484558,455.0
39.317853927612305,452.0
39.31801128387451,448.0
39.31816291809082,442.0
39.323057889938354,440.0
39.37440514564514,444.0
39.412269115448,456.0
39.449326276779175,478.0
39.449501037597656,511.0
39.48699116706848,557.0
39.524333238601685,612.0
39.561840295791626,673.0
39.5989933013916,733.0
39.60615396499634,787.0
39.606332302093506,827.0
39.60972714424133,853.0
39.61323809623718,860.0
39.6176872253418,849.0
39.617847204208374,822.0
39.61800193786621,778.0
39.61821007728577,721.0
39.67350101470947,660.0
39.710737228393555,594.0
39.746963024139404,529.0
39.78602719306946,467.0
39.82203507423401,411.0
39.85967803001404,363.0
39.89700508117676,322.0
39.897239208221436,292.0
39.89744710922241,273.0
39.89763116836548,265.0
39.897788286209106,268.0
39.90007519721985,282.0
39.90025305747986,306.0
39.900426149368286,337.0
39.900599241256714,373.0
39.90325927734375,411.0
39.90344309806824,451.0
39.90359807014465,487.0
39.90641212463379,518.0
39.906583070755005,543.0
39.906814098358154,560.0
39.9069721698761,568.0
39.90979814529419,569.0
39.90999913215637,563.0
39.9101722240448,550.0
39.91034126281738,532.0
39.91313409805298,511.0
39.91330623626709,487.0
39.91346311569214,464.0
39.91644906997681,441.0
39.91994118690491,421.0
39.97586011886597,404.0
40.0133330821991,390.0
40.050673961639404,380.0
40.08934807777405,374.0
40.12789821624756,371.0
40.12806820869446,372.0
40.12822413444519,376.0
40.12840414047241,383.0
40.12858319282532,391.0
40.128772258758545,400.0
40.1324360370636,410.0
40.132609128952026,420.0
40.13282322883606,428.0
40.165603160858154,435.0
40.16573905944824,441.0
40.165855169296265,446.0
40.16597509384155,449.0
40.169135093688965,452.0
40.16929507255554,455.0
40.169456243515015,458.0
40.16966509819031,465.0
40.17281413078308,479.0
40.17297315597534,501.0
40.173137187957764,532.0
40.20833611488342,576.0
40.20857810974121,628.0
40.20873498916626,684.0
40.208893060684204,741.0
40.211204290390015,789.0
40.245808124542236,830.0
40.28211307525635,855.0
40.31839203834534,863.0
40.355706214904785,854.0
40.393062114715576,828.0
40.4318311214447,788.0
40.468241930007935,737.0
40.50721001625061,677.0
40.50739932060242,612.0
40.507559061050415,547.0
40.50772309303284,484.0
40.510510206222534,425.0
40.51070427894592,373.0
40.510881185531616,329.0
40.514108180999756,294.0
40.51426911354065,270.0
40.51443004608154,257.0
40.51459097862244,256.0
40.51476311683655,266.0
40.5176420211792,288.0
40.517800092697144,318.0
40.517975091934204,355.0
40.5217502117157,398.0
40.5253529548645,441.0
40.52552604675293,482.0
40.52568197250366,518.0
40.52962613105774,548.0
40.58178114891052,571.0
40.619322299957275,584.0
40.61948919296265,589.0
40.65726590156555,585.0
40.69432020187378,575.0
40.694491147994995,557.0
40.69465112686157,536.0
40.73242807388306,511.0
40.73261523246765,486.0
40.73278522491455,460.0
40.73298096656799,437.0
40.73670411109924,416.0
40.73686718940735,400.0
40.73702311515808,387.0
40.73720717430115,379.0
40.74136018753052,375.0
40.741536140441895,374.0
40.74172496795654,377.0
40.77335500717163,381.0
40.77353024482727,388.0
40.773723125457764,397.0
40.773924112319946,404.0
40.77661108970642,412.0
40.77679204940796,420.0
40.77699422836304,429.0
40.7772421836853,439.0
40.77991724014282,451.0
40.78008818626404,467.0
40.780275106430054,491.0
40.78305912017822,525.0
40.78322410583496,569.0
40.78339719772339,624.0
40.78360199928284,687.0
40.78636717796326,752.0
40.790072202682495,813.0
40.7932231426239,864.0
40.796428203582764,900.0
40.799654960632324,917.0
40.8532600402832,914.0
40.89065217971802,892.0
40.928218126297,853.0
40.928386211395264,800.0
40.9285671710968,735.0
40.928739070892334,665.0
40.931560039520264,594.0
40.93171811103821,524.0
40.93190407752991,461.0
40.93209218978882,403.0
40.93488121032715,355.0
40.93506217002869,317.0
40.93522906303406,288.0
40.93539214134216,270.0
40.93811106681824,263.0
40.938268184661865,267.0
40.93843197822571,283.0
40.93860411643982,308.0
40.94146418571472,344.0
40.975850105285645,385.0
41.01483702659607,429.0
41.01509714126587,473.0
41.05230212211609,512.0
41.09028625488281,547.0
41.09370398521423,576.0
41.09725308418274,595.0
41.100874185562134,605.0
41.106001138687134,607.0
41.15955209732056,599.0
41.16342616081238,584.0
41.19721508026123,564.0
41.23322319984436,540.0
41.233400106430054,513.0
41.26934814453125,487.0
41.26949501037598,460.0
41.26957321166992,436.0
41.26964998245239,414.0
41.26972699165344,397.0
41.273874044418335,384.0
41.309338092803955,376.0
41.34744620323181,372.0
41.384241342544556,371.0
41.387892961502075,373.0
41.39139199256897,378.0
41.3915650844574,385.0
41.391721963882446,392.0
41.39480710029602,401.0
41.39492726325989,412.0
41.39504313468933,427.0
41.39515805244446,445.0
41.398383140563965,472.0
41.398521184921265,510.0
41.39863705635071,559.0
41.40198016166687,621.0
41.406307220458984,691.0
41.43355917930603,764.0
41.46973705291748,836.0
41.50679016113281,897.0
41.54435896873474,942.0
41.5445601940155,947.0
41.54472804069519,947.0
41.581849098205566,947.0
41.58201813697815,927.0
41.58218502998352,874.0
41.61898922920227,807.0
41.61915397644043,731.0
41.61931014060974,653.0
41.61951017379761,576.0
41.62417721748352,504.0
41.62434220314026,439.0
41.62450098991394,384.0
41.65934705734253,339.0
41.69791793823242,305.0
41.69808530807495,283.0
41.698243141174316,275.0
41.70161414146423,278.0
41.70177102088928,291.0
41.70193529129028,314.0
41.702099084854126,346.0
41.7053120136261,382.0
41.70549011230469,420.0
41.705646276474,457.0
41.70580315589905,493.0
41.708901166915894,525.0
41.712199211120605,551.0
41.71564316749573,568.0
41.71909523010254,576.0
41.773298025131226,578.0
41.77718925476074,573.0
41.812217235565186,563.0
41.849804162979126,546.0
41.88726305961609,526.0
41.887426137924194,504.0
41.88758206367493,481.0
41.88776612281799,458.0
41.89163017272949,438.0
41.89179015159607,420.0
41.89194393157959,406.0
41.8921000957489,395.0
41.89516592025757,387.0
41.89533019065857,383.0
41.89554524421692,383.0
41.89570212364197,385.0
41.8984751701355,388.0
41.89863204956055,394.0
41.89882230758667,402.0
41.89897918701172,410.0
41.903016090393066,420.0
41.933194160461426,433.0
41.933364152908325,450.0
41.971641063690186,477.0
41.97182512283325,514.0
41.971977949142456,563.0
41.97216725349426,626.0
41.97605109214783,697.0
41.980156898498535,774.0
41.98373818397522,847.0
41.98806095123291,910.0
41.993290185928345,947.0
42.0482451915741,947.0
42.08436298370361,947.0
42.12070107460022,947.0
42.156495094299316,931.0
42.15666198730469,875.0
42.15682911872864,804.0
42.15700912475586,728.0
42.16167497634888,652.0
42.161843061447144,576.0
42.161999225616455,508.0
42.16216516494751,449.0
42.16605019569397,399.0
42.166218996047974,359.0
42.16637706756592,331.0
42.26544117927551,313.0
42.265690088272095,307.0
42.26585030555725,311.0
42.26600909233093,322.0
42.26616907119751,342.0
42.26632499694824,367.0
42.26650023460388,397.0
42.266685009002686,429.0
42.26686120033264,459.0
42.26701521873474,489.0
42.26718330383301,514.0
42.26735305786133,534.0
42.26743817329407,546.0
42.26753306388855,553.0
42.26767325401306,553.0
42.26776599884033,546.0
42.267863035202026,534.0
42.267980098724365,518.0
42.26808500289917,500.0
42.26817727088928,480.0
42.26829814910889,460.0
42.26841926574707,441.0
42.26853108406067,426.0
42.26863622665405,412.0
42.26873707771301,403.0
42.26884627342224,397.0
42.268938064575195,393.0
42.26903033256531,393.0
42.269140005111694,396.0
42.26924014091492,400.0
42.269365072250366,404.0
42.30114722251892,410.0
42.30433893203735,416.0
42.30762219429016,424.0
42.3112370967865,431.0
42.315110206604004,439.0
42.31953001022339,446.0
42.370609998703,457.0
42.408337116241455,476.0
42.44570708274841,504.0
42.48317217826843,543.0
42.52066993713379,596.0
42.55822420120239,660.0
42.59746718406677,729.0
42.601113080978394,799.0
42.60469603538513,861.0
42.60868716239929,908.0
42.61204409599304,935.0
42.66652703285217,942.0
42.67088222503662,927.0
42.704432249069214,893.0
42.740787982940674,842.0
42.77851700782776,777.0
42.81440997123718,707.0
42.90246605873108,636.0
42.90263915061951,566.0
42.906214237213135,503.0
42.9099280834198,446.0
42.910094261169434,399.0
42.91024994850159,361.0
42.91447401046753,334.0
42.914637088775635,316.0
42.91483497619629,307.0
42.91499328613281,306.0
42.91794013977051,316.0
42.91809892654419,334.0
42.9182550907135,356.0
42.921223163604736,383.0
42.92143797874451,412.0
42.9216251373291,442.0
42.92179608345032,470.0
42.978111028671265,495.0
43.01557922363281,515.0
43.053565979003906,529.0
43.09094500541687,536.0
43.128014087677,536.0
43.165651082992554,530.0
43.165847063064575,519.0
43.1660361289978,506.0
43.20397210121155,489.0
43.20415019989014,470.0
43.204318046569824,452.0
43.207683086395264,435.0
43.20784115791321,420.0
43.20800995826721,408.0
43.20818305015564,399.0
43.21141505241394,395.0
43.21158027648926,393.0
43.21174097061157,393.0
43.21506905555725,397.0
43.21522903442383,403.0
43.21542024612427,409.0
43.215583086013794,417.0
43.21894311904907,424.0
43.219107151031494,433.0
43.2192702293396,439.0
43.21943926811218,445.0
43.22297716140747,450.0
43.2231650352478,454.0
43.22333216667175,456.0
43.22350525856018,458.0
43.2236602306366,462.0
43.226349115371704,470.0
43.23047709465027,486.0
43.28363227844238,513.0
43.32052993774414,555.0
43.35810422897339,610.0
43.39596223831177,674.0
43.43201518058777,742.0
43.43220114707947,809.0
43.432361125946045,866.0
43.43252992630005,907.0
43.43268609046936,929.0
43.436944246292114,931.0
43.43712306022644,912.0
43.43729615211487,872.0
43.472317934036255,817.0
43.472490072250366,752.0
43.47258400917053,681.0
43.47280406951904,608.0
43.472968101501465,539.0
43.47526931762695,477.0
43.475362062454224,421.0
43.475452184677124,376.0
43.47851228713989,340.0
43.478610038757324,316.0
43.478724241256714,302.0
43.47884011268616,299.0
43.48168706893921,306.0
43.48179626464844,323.0
43.48189425468445,349.0
43.481982946395874,380.0
43.48507595062256,414.0
43.48875331878662,449.0
43.49186611175537,484.0
43.495121240615845,513.0
43.498650312423706,536.0
43.5522723197937,551.0
43.58942532539368,560.0
43.62691521644592,561.0
43.66462016105652,553.0
43.66481423377991,541.0
43.66499996185303,526.0
43.66521716117859,506.0
43.66798806190491,485.0
43.66819095611572,464.0
43.66836094856262,443.0
43.704999923706055,425.0
43.70519208908081,409.0
43.705366134643555,398.0
43.70553922653198,391.0
43.70938229560852,388.0
43.70953917503357,389.0
43.709712266922,394.0
43.70987606048584,401.0
43.71380400657654,411.0
43.74710035324097,420.0
43.74727702140808,431.0
43.78483009338379,441.0
43.787548303604126,449.0
43.79083609580994,455.0
43.79417300224304,461.0
43.79726815223694,464.0
43.80038022994995,464.0
43.80360507965088,463.0
43.855648040771484,463.0
43.85911703109741,468.0
43.89451599121094,477.0
43.89470314979553,496.0
43.894904136657715,526.0
43.89508509635925,570.0
43.897932052612305,627.0
43.898102045059204,693.0
43.89827823638916,763.0
43.93437218666077,829.0
43.934536933898926,883.0
43.934699058532715,923.0
43.93487215042114,939.0
43.9379940032959,936.0
43.97435808181763,911.0
43.974518060684204,867.0
43.974684953689575,810.0
43.974889039993286,743.0
43.9779691696167,671.0
44.01553797721863,598.0
44.05326795578003,529.0
44.05344104766846,469.0
44.097827196121216,418.0
44.097997188568115,375.0
44.09815812110901,342.0
44.10145616531372,320.0
44.1050660610199,308.0
44.109286308288574,307.0
44.11291718482971,316.0
44.11741495132446,333.0
44.1694130897522,356.0
44.20717716217041,384.0
44.244858264923096,416.0
44.28228831291199,448.0
44.28250336647034,478.0
44.282686948776245,503.0
44.31932210922241,524.0
44.3568651676178,536.0
44.357070207595825,544.0
44.35723805427551,543.0
44.40148305892944,537.0
44.40518307685852,526.0
44.40535497665405,510.0
44.405524015426636,492.0
44.40872120857239,474.0
44.41280722618103,454.0
44.41298317909241,437.0
44.41316604614258,420.0
44.41644024848938,407.0
44.41660022735596,398.0
44.416800022125244,391.0
44.416956186294556,388.0
44.42086100578308,388.0
44.42101812362671,392.0
44.42117214202881,400.0
44.42133617401123,409.0
44.47693228721619,419.0
44.51431202888489,430.0
44.55180597305298,440.0
44.588444232940674,450.0
44.625649213790894,458.0
44.663342237472534,464.0
44.70071601867676,468.0
44.700923204422,471.0
44.70114827156067,470.0
44.70131731033325,467.0
44.70148420333862,463.0
44.70407199859619,460.0
44.70423412322998,458.0
44.704432249069214,461.0
44.704604148864746,474.0
44.707375288009644,499.0
44.7075731754303,539.0
44.70775508880615,595.0
44.70794224739075,664.0
44.71076202392578,741.0
44.71095609664917,817.0
44.71111297607422,887.0
44.714051246643066,937.0
44.71423625946045,947.0
44.714457273483276,947.0
44.71462607383728,947.0
44.71478295326233,935.0
44.71752190589905,881.0
44.71771311759949,815.0
44.71788501739502,738.0
44.718059062957764,659.0
44.72065997123718,587.0
44.72386717796326,519.0
44.727129220962524,464.0
44.78433632850647,417.0
44.78838515281677,379.0
44.82158589363098,351.0
44.824785232543945,334.0
44.82495617866516,325.0
44.82513618469238,324.0
44.825313091278076,331.0
44.82550311088562,345.0
44.82808208465576,364.0
44.82824206352234,387.0
44.82840919494629,413.0
44.831544160842896,439.0
44.831706285476685,462.0
44.83186101913452,483.0
44.832030057907104,499.0
44.83219933509827,511.0
44.834715127944946,515.0
44.83487415313721,514.0
44.83502793312073,509.0
44.83799505233765,499.0
44.838168144226074,489.0
44.83833122253418,474.0
44.838486194610596,458.0
44.8416531085968,442.0
44.84181308746338,428.0
44.842021226882935,414.0
44.842188119888306,403.0
44.845317125320435,396.0
44.848583936691284,393.0
44.85180711746216,392.0
44.905714988708496,394.0
44.94437623023987,398.0
44.98087406158447,405.0
44.98458123207092,413.0
44.98855519294739,420.0
44.99252200126648,430.0
44.99612331390381,440.0
44.999797105789185,449.0
44.99996614456177,457.0
45.052258014678955,463.0
45.08947992324829,467.0
45.126808166503906,468.0
45.16435408592224,468.0
45.20070028305054,466.0
45.24000906944275,463.0
45.28451609611511,458.0
45.28760504722595,454.0
45.29082131385803,448.0
45.29408621788025,443.0
45.29762816429138,438.0
45.297818183898926,438.0
45.3008451461792,442.0
45.301011085510254,455.0
45.30120611190796,480.0
45.30462121963501,523.0
45.35544300079346,582.0
45.35560917854309,655.0
45.358986139297485,735.0
45.3934440612793,816.0
45.43066596984863,888.0
45.46814227104187,942.0
45.506712198257446,947.0
45.50694012641907,947.0
45.50710916519165,947.0
45.50729513168335,945.0
45.546250104904175,887.0
45.54644727706909,819.0
45.5466091632843,743.0
45.54681706428528,664.0
45.55224919319153,590.0
45.55243229866028,523.0
45.552608013153076,465.0
45.55277919769287,417.0
45.555875062942505,379.0
45.55610513687134,350.0
45.556286096572876,331.0
45.556443214416504,320.0
45.55950903892517,319.0
45.55968523025513,326.0
45.559839963912964,340.0
45.55999517440796,359.0
45.56313920021057,382.0
45.56332015991211,406.0
45.563475131988525,432.0
45.56363010406494,454.0
45.56837606430054,475.0
45.597371101379395,492.0
45.60106110572815,504.0
45.60467720031738,510.0
45.608278036117554,509.0
45.61268711090088,505.0
45.66770315170288,496.0
45.67212224006653,482.0
45.706820249557495,467.0
45.706984996795654,452.0
45.70716214179993,436.0
45.74425029754639,421.0
45.74446225166321,409.0
45.744651079177856,400.0
45.74484419822693,392.0
45.74874925613403,388.0
45.74892711639404,386.0
45.749086141586304,387.0
45.74928307533264,391.0
45.75327515602112,395.0
45.753437995910645,403.0
45.75359106063843,410.0
45.78564929962158,417.0
45.78581619262695,425.0
45.78600025177002,431.0
45.78618025779724,438.0
45.79007911682129,444.0
45.82743310928345,449.0
45.864710330963135,454.0
45.90074324607849,457.0
45.903834104537964,459.0
45.90721011161804,460.0
45.91100311279297,460.0
45.91530799865723,459.0
45.961836099624634,456.0
45.962374210357666,454.0
45.96498203277588,450.0
45.96827697753906,447.0
45.96857810020447,442.0
45.971490144729614,437.0
45.971681118011475,431.0
45.97186207771301,425.0
45.97481918334961,420.0
45.975072145462036,416.0
45.97524929046631,415.0
45.975372076034546,417.0
45.97800803184509,431.0
45.98161005973816,456.0
45.98451828956604,497.0
45.98469519615173,558.0
45.98741102218628,632.0
45.990599155426025,718.0
45.990700006484985,806.0
45.99078035354614,886.0
45.99399209022522,945.0
45.99410009384155,947.0
45.99421310424805,947.0
45.994292974472046,947.0
45.997398138046265,947.0
45.99748206138611,927.0
45.99755907058716,858.0
45.99763321876526,777.0
46.00081014633179,693.0
46.00406098365784,609.0
46.007431983947754,531.0
46.01082921028137,464.0
46.014079093933105,408.0
46.017455101013184,361.0
46.020812034606934,327.0
46.023948192596436,304.0
46.027114152908325,292.0
46.04669499397278,291.0
46.049906969070435,300.0
46.0531542301178,317.0
46.056447982788086,340.0
46.05958914756775,367.0
46.081526041030884,397.0
46.08469200134277,429.0
46.08790922164917,457.0
46.09103202819824,482.0
46.13323712348938,502.0
46.13657307624817,516.0
46.140228271484375,526.0
46.143800258636475,526.0
46.14808011054993,520.0
46.16986012458801,512.0
46.173890113830566,500.0
46.17827820777893,483.0
46.209983110427856,467.0
46.21350932121277,450.0
46.21733522415161,433.0
46.22186803817749,417.0
46.24361515045166,404.0
46.247061014175415,393.0
46.25130820274353,385.0
46.275262117385864,381.0
46.27850008010864,381.0
46.2817542552948,384.0
46.30940508842468,390.0
46.30955696105957,397.0
46.312402963638306,404.0
46.31588912010193,415.0
46.34154915809631,423.0
46.34494709968567,433.0
46.34825611114502,441.0
46.35165023803711,448.0
46.380271196365356,455.0
46.38347315788269,460.0
46.386831283569336,464.0
46.41279411315918,466.0
46.41615414619446,467.0
46.419459104537964,467.0
46.4453341960907,464.0
46.448657274246216,462.0
46.45186114311218,457.0
46.457781076431274,450.0
46.461183071136475,444.0
46.50680613517761,439.0
46.50992798805237,435.0
46.513296127319336,432.0
46.51651406288147,430.0
46.51961302757263,432.0
46.542685985565186,442.0
46.5458881855011,463.0
46.549023151397705,496.0
46.55212712287903,546.0
46.576526165008545,610.0
46.579631090164185,684.0
46.58285212516785,760.0
46.60794019699097,830.0
46.610870122909546,888.0
46.61405324935913,926.0
46.64154028892517,941.0
46.644482135772705,935.0
46.64772009849548,908.0
46.67403507232666,858.0
46.67709493637085,795.0
46.680260181427,721.0
46.7065269947052,642.0
46.709681272506714,564.0
46.712751150131226,491.0
46.71637415885925,425.0
46.742769956588745,370.0
46.745901107788086,326.0
46.74905610084534,292.0
46.75216007232666,269.0
46.772749185562134,259.0
46.77642297744751,262.0
46.810466051101685,274.0
46.81353235244751,296.0
46.81686019897461,328.0
46.82022213935852,364.0
46.84525799751282,402.0
46.84830117225647,441.0
46.851454973220825,475.0
46.8785080909729,504.0
46.88211512565613,526.0
46.88573598861694,540.0
46.89000916481018,546.0
46.91146802902222,544.0
46.91455006599426,536.0
46.91904807090759,521.0
46.948368310928345,502.0
46.95222520828247,481.0
46.952314138412476,458.0
46.956507205963135,435.0
46.97859311103821,415.0
46.98191690444946,397.0
46.986101150512695,382.0
47.01099491119385,371.0
47.01409316062927,364.0
47.01817512512207,362.0
47.04338717460632,363.0
47.04684114456177,368.0
47.05110192298889,376.0
47.10873818397522,385.0
47.112277030944824,396.0
47.11604714393616,407.0
47.1192262172699,417.0
47.12272310256958,428.0
47.12616014480591,438.0
47.1303870677948,446.0
47.14962315559387,452.0
47.15333104133606,457.0
47.15693521499634,461.0
47.161147117614746,464.0
47.18350124359131,465.0
47.18703532218933,463.0
47.190667152404785,459.0
47.194902181625366,455.0
47.21719193458557,448.0
47.220317125320435,441.0
47.22443509101868,434.0
47.24971318244934,428.0
47.25310206413269,422.0
47.25740599632263,420.0
47.28212928771973,422.0
47.286033153533936,434.0
47.291260957717896,458.0
47.31721234321594,497.0
47.32081413269043,555.0
47.3240692615509,628.0
47.34966707229614,710.0
47.35328221321106,796.0
47.356900215148926,877.0
47.36207628250122,941.0
47.41889715194702,947.0
47.42354416847229,947.0
47.42640709877014,947.0
47.430567026138306,947.0
47.43510603904724,944.0
47.43903708457947,873.0
47.4431471824646,795.0
47.4471161365509,709.0
47.45158314704895,625.0
47.48863625526428,545.0
47.492292165756226,473.0
47.495975971221924,412.0
47.499595165252686,364.0
47.504006147384644,327.0
47.52351999282837,299.0
47.52680015563965,284.0
47.531076192855835,279.0
47.556029081344604,283.0
47.55965805053711,296.0
47.56330227851868,317.0
47.58977794647217,343.0
47.58994817733765,372.0
47.593510150909424,402.0
47.59793519973755,431.0
47.62234020233154,458.0
47.62600302696228,481.0
47.62929725646973,499.0
47.65477108955383,511.0
47.65843200683594,516.0
47.66204118728638,515.0
47.66725206375122,510.0
47.68864631652832,500.0
47.69225311279297,488.0
47.696609020233154,472.0
47.72098207473755,456.0
47.724668979644775,441.0
47.728217124938965,427.0
47.78652310371399,413.0
47.789791107177734,401.0
47.79355335235596,391.0
47.79731202125549,384.0
47.80107808113098,380.0
47.80482220649719,378.0
47.808434009552,378.0
47.81282615661621,381.0
47.8322639465332,386.0
47.83556604385376,391.0
47.84077310562134,399.0
47.86482095718384,408.0
47.86862015724182,416.0
47.872385025024414,425.0
47.87682509422302,433.0
47.898497104644775,441.0
47.90221309661865,448.0
47.90662097930908,454.0
47.93102216720581,457.0
47.93540000915527,459.0
47.939383029937744,459.0
47.96349310874939,455.0
47.96717715263367,451.0
47.971575021743774,446.0
47.99596905708313,439.0
47.99961304664612,433.0
48.00337529182434,430.0
48.00772523880005,432.0
48.03077006340027,441.0
48.05797624588013,460.0
48.060861110687256,495.0
48.06504011154175,543.0
48.069207191467285,607.0
48.074196100234985,679.0
48.110121965408325,758.0
48.11397314071655,833.0
48.11828422546387,895.0
48.122491121292114,937.0
48.12741708755493,947.0
48.17624616622925,947.0
48.18091130256653,931.0
48.185078144073486,885.0
48.189210176467896,825.0
48.192143201828,752.0
48.19624304771423,674.0
48.201152086257935,598.0
48.21829319000244,524.0
48.22261619567871,460.0
48.227110147476196,404.0
48.23036313056946,360.0
48.255725145339966,327.0
48.25826096534729,304.0
48.26236701011658,291.0
48.267345905303955,287.0
48.28785800933838,292.0
48.29295206069946,307.0
48.2974579334259,327.0
48.3301420211792,352.0
48.333489179611206,380.0
48.337122201919556,411.0
48.341428995132446,440.0
48.36354732513428,465.0
48.367194175720215,487.0
48.37160301208496,504.0
48.39601731300354,515.0
48.39968800544739,520.0
48.404118061065674,519.0
48.428752183914185,512.0
48.432289123535156,502.0
48.436063051223755,487.0
48.4404821395874,469.0
48.46224522590637,451.0
48.46591019630432,431.0
48.47037124633789,414.0
48.49474906921387,398.0
48.4984393119812,386.0
48.50208020210266,377.0
48.50645399093628,370.0
48.52908420562744,368.0
48.53225111961365,367.0
48.536680936813354,370.0
48.56186509132385,375.0
48.565455198287964,381.0
48.56982398033142,389.0
48.62498426437378,397.0
48.62856721878052,404.0
48.6322979927063,415.0
48.636048316955566,424.0
48.63978910446167,435.0
48.64345908164978,444.0
48.647058963775635,450.0
48.6520562171936,455.0
48.69201612472534,459.0
48.69507098197937,461.0
48.698281049728394,462.0
48.70147895812988,460.0
48.70462703704834,455.0
48.70779609680176,448.0
48.72892498970032,442.0
48.73233103752136,437.0
48.735548973083496,433.0
48.761638879776,432.0
48.7648401260376,440.0
48.768081188201904,461.0
48.79396605491638,494.0
48.79733920097351,540.0
48.80057406425476,602.0
48.82646107673645,673.0
48.82980012893677,747.0
48.83308506011963,816.0
48.859148025512695,876.0
48.85931921005249,918.0
48.86244320869446,938.0
48.865864992141724,938.0
48.91982412338257,914.0
48.92422604560852,873.0
48.92783999443054,814.0
48.93135905265808,747.0
48.934938192367554,675.0
48.93936204910278,601.0
48.95720291137695,530.0
48.96039915084839,466.0
48.96278214454651,412.0
48.9661021232605,367.0
48.99292230606079,330.0
48.99549698829651,307.0
48.99893617630005,291.0
49.026684284210205,287.0
49.02980709075928,294.0
49.033077001571655,307.0
49.059375286102295,329.0
49.062520265579224,356.0
49.065675020217896,387.0
49.069005250930786,419.0
49.09275698661804,450.0
49.09614014625549,479.0
49.09955811500549,503.0
49.102843284606934,520.0
49.12667107582092,533.0
49.12996816635132,539.0
49.1333281993866,538.0
49.15894603729248,531.0
49.162294149398804,519.0
49.16573715209961,503.0
49.221763134002686,484.0
49.225075006484985,465.0
49.22850322723389,446.0
49.23166799545288,427.0
49.234792947769165,410.0
49.23817229270935,396.0
49.25799202919006,384.0
49.26124715805054,378.0
49.264331102371216,375.0
49.26763391494751,374.0
49.291964292526245,376.0
49.295068979263306,382.0
49.29852223396301,390.0
49.30167603492737,399.0
49.33476996421814,410.0
49.33756899833679,421.0
49.34094524383545,429.0
