1.9073486328125e-06,531.0
0.08591890335083008,489.0
0.11486196517944336,454.0
0.11837100982666016,425.0
0.12357687950134277,403.0
0.14724493026733398,387.0
0.1509261131286621,378.0
0.1553189754486084,374.0
0.17983007431030273,374.0
0.1833798885345459,380.0
0.18696093559265137,391.0
0.1913919448852539,405.0
0.21368694305419922,422.0
0.21722888946533203,439.0
0.22166991233825684,456.0
0.24599075317382812,473.0
0.24962687492370605,489.0
0.25408291816711426,504.0
0.2784230709075928,513.0
0.28244781494140625,518.0
0.28679490089416504,520.0
0.33864498138427734,517.0
0.3423616886138916,514.0
0.34613776206970215,507.0
0.34995579719543457,498.0
0.3536508083343506,488.0
0.3572118282318115,478.0
0.36156702041625977,468.0
0.3798038959503174,459.0
0.3833189010620117,451.0
0.3869929313659668,445.0
0.39138197898864746,440.0
0.4134068489074707,436.0
0.4170849323272705,433.0
0.4214768409729004,431.0
0.445950984954834,428.0
0.449617862701416,427.0
0.453977108001709,426.0
0.47844600677490234,427.0
0.482205867767334,428.0
0.48659586906433105,429.0
0.5109508037567139,430.0
0.5145478248596191,431.0
0.5182220935821533,434.0
0.5227878093719482,438.0
0.529655933380127,442.0
0.5342128276824951,451.0
0.5611178874969482,468.0
0.5646989345550537,494.0
0.5698847770690918,531.0
0.6162970066070557,582.0
0.6198489665985107,641.0
0.6237130165100098,703.0
0.6277649402618408,761.0
0.6313908100128174,812.0
0.63572096824646,851.0
0.6597058773040771,873.0
0.6633768081665039,880.0
0.6685900688171387,870.0
0.6922187805175781,844.0
0.6958138942718506,805.0
0.7002387046813965,759.0
0.7254929542541504,706.0
0.730003833770752,652.0
0.7335197925567627,600.0
0.7370579242706299,554.0
0.7414860725402832,511.0
0.7621619701385498,475.0
0.7658529281616211,444.0
0.7702429294586182,420.0
0.7947137355804443,402.0
0.7983298301696777,387.0
0.802736759185791,383.0
0.8271670341491699,380.0
0.8308680057525635,383.0
0.835223913192749,390.0
0.8598179817199707,400.0
0.8634240627288818,415.0
0.8677990436553955,432.0
0.9175920486450195,449.0
0.9211177825927734,466.0
0.9250288009643555,482.0
0.9286017417907715,492.0
0.9321630001068115,506.0
0.936654806137085,503.0
0.9496619701385498,516.0
0.9533398151397705,513.0
0.9569709300994873,509.0
0.9613797664642334,504.0
0.9836018085479736,495.0
0.9871690273284912,487.0
0.9915750026702881,476.0
1.0159499645233154,466.0
1.0195918083190918,456.0
1.0239479541778564,448.0
1.0484158992767334,441.0
1.0520849227905273,436.0
1.0565738677978516,432.0
1.0809190273284912,428.0
1.0845770835876465,427.0
1.0889747142791748,427.0
1.1136140823364258,427.0
1.1172149181365967,430.0
1.1209850311279297,432.0
1.1253387928009033,434.0
1.147197961807251,436.0
1.150831699371338,437.0
1.1544888019561768,439.0
1.1589279174804688,440.0
1.1818208694458008,440.0
1.1852679252624512,442.0
1.1901748180389404,442.0
1.225017786026001,442.0
1.2285139560699463,442.0
1.232192039489746,444.0
1.2366180419921875,447.0
1.2597157955169678,454.0
1.2634248733520508,468.0
1.267805814743042,495.0
1.2922229766845703,533.0
1.295820951461792,584.0
1.2994709014892578,643.0
1.3038368225097656,704.0
1.3268558979034424,762.0
1.3303427696228027,813.0
1.3347609043121338,851.0
1.3584010601043701,872.0
1.362226963043213,877.0
1.3659448623657227,865.0
1.370330810546875,838.0
1.3922488689422607,800.0
1.3958868980407715,755.0
1.400223970413208,705.0
1.4246869087219238,653.0
1.428351879119873,600.0
1.432739019393921,553.0
1.4572877883911133,511.0
1.4608707427978516,475.0
1.465242862701416,444.0
1.517524003982544,419.0
1.5210590362548828,401.0
1.5247209072113037,388.0
1.5284957885742188,383.0
1.5320570468902588,382.0
1.5364611148834229,386.0
1.5546448230743408,394.0
1.5586628913879395,407.0
1.5628108978271484,423.0
1.56718111038208,440.0
1.5909738540649414,457.0
1.5945589542388916,475.0
1.5982508659362793,491.0
1.602665901184082,504.0
1.6248059272766113,515.0
1.6283819675445557,522.0
1.6327879428863525,524.0
1.6572599411010742,522.0
1.6609368324279785,516.0
1.6661028861999512,509.0
1.6896729469299316,502.0
1.6933579444885254,494.0
1.6977310180664062,483.0
1.7223589420318604,472.0
1.725804090499878,460.0
1.729443073272705,449.0
1.734605073928833,441.0
1.7558960914611816,434.0
1.7595598697662354,429.0
1.7647926807403564,425.0
1.817422866821289,423.0
1.8210690021514893,422.0
1.8248019218444824,422.0
1.8285019397735596,424.0
1.832284927368164,425.0
1.8358640670776367,428.0
1.8402481079101562,431.0
1.858402967453003,434.0
1.8620948791503906,439.0
1.8666718006134033,442.0
1.8909759521484375,444.0
1.8946068286895752,447.0
1.898231029510498,449.0
1.9026479721069336,451.0
1.9283838272094727,452.0
1.932075023651123,452.0
1.9364359378814697,452.0
1.9609708786010742,451.0
1.9645779132843018,449.0
1.9689347743988037,446.0
1.9935858249664307,445.0
1.9971649646759033,444.0
2.0015690326690674,444.0
2.02590274810791,447.0
2.0295538902282715,455.0
2.0333149433135986,471.0
2.036986827850342,497.0
2.0422139167785645,537.0
2.063467025756836,590.0
2.067133903503418,649.0
2.071500062942505,710.0
2.1200649738311768,767.0
2.1235909461975098,815.0
2.1273598670959473,851.0
2.1310510635375977,869.0
2.1345949172973633,871.0
2.1389968395233154,857.0
2.15726900100708,828.0
2.1609127521514893,787.0
2.1653358936309814,739.0
2.1896917819976807,686.0
2.1933538913726807,633.0
2.197674036026001,583.0
2.2273998260498047,535.0
2.231081962585449,495.0
2.234734058380127,460.0
2.2382988929748535,432.0
2.242692708969116,409.0
2.2634449005126953,393.0
2.2670960426330566,383.0
2.271497964859009,380.0
2.295893907546997,380.0
2.2997989654541016,385.0
2.304520845413208,394.0
2.3105809688568115,408.0
2.337171792984009,423.0
2.3408148288726807,438.0
2.3451929092407227,455.0
2.3698039054870605,472.0
2.3733980655670166,486.0
2.378696918487549,497.0
2.416252851486206,505.0
2.4198548793792725,512.0
2.4236910343170166,514.0
2.427292823791504,514.0
2.4308159351348877,511.0
2.435203790664673,505.0
2.453421115875244,497.0
2.4571456909179688,489.0
2.462345838546753,479.0
2.491489887237549,468.0
2.495004892349243,459.0
2.498563766479492,451.0
2.5030100345611572,441.0
2.5250627994537354,433.0
2.5284829139709473,427.0
2.5329508781433105,422.0
2.557372808456421,417.0
2.5608577728271484,416.0
2.5652527809143066,415.0
2.5897419452667236,415.0
2.593331813812256,417.0
2.5976829528808594,418.0
2.6213388442993164,421.0
2.624809980392456,424.0
2.628354072570801,428.0
2.65478777885437,431.0
2.658414840698242,435.0
2.6585919857025146,438.0
2.6628029346466064,441.0
2.7163138389587402,442.0
2.71994686126709,444.0
2.7236380577087402,445.0
2.72733998298645,447.0
2.7308778762817383,447.0
2.735266923904419,447.0
2.7535088062286377,445.0
2.7571067810058594,446.0
2.7607009410858154,446.0
2.7651069164276123,445.0
2.78715181350708,443.0
2.790830135345459,443.0
2.795236825942993,446.0
2.819736957550049,450.0
2.8233747482299805,463.0
2.827749729156494,483.0
2.8713090419769287,515.0
2.874833822250366,557.0
2.878633975982666,611.0
2.8822720050811768,667.0
2.8858768939971924,726.0
2.89107084274292,776.0
2.908383846282959,816.0
2.9121179580688477,843.0
2.915695905685425,852.0
2.920898914337158,846.0
2.942965030670166,826.0
2.946563720703125,793.0
2.951805830001831,751.0
2.974709987640381,702.0
2.9783549308776855,651.0
2.9828858375549316,597.0
3.018584966659546,549.0
3.0222089290618896,506.0
3.025798797607422,470.0
3.03027081489563,439.0
3.034649133682251,414.0
3.0392508506774902,396.0
3.0660510063171387,382.0
3.0703370571136475,375.0
3.0747339725494385,372.0
3.0997378826141357,373.0
3.1033108234405518,380.0
3.1069939136505127,391.0
3.1121017932891846,406.0
3.133591890335083,423.0
3.137194871902466,442.0
3.141615867614746,461.0
3.1659038066864014,479.0
3.1695668697357178,496.0
3.173985004425049,508.0
3.1988589763641357,518.0
3.2017409801483154,522.0
3.2060799598693848,524.0
3.230912923812866,520.0
3.234888792037964,513.0
3.239783763885498,506.0
3.244277000427246,497.0
3.2711679935455322,484.0
3.2746407985687256,475.0
3.2789878845214844,464.0
3.3161468505859375,454.0
3.3198509216308594,445.0
3.3236138820648193,438.0
3.3273398876190186,432.0
3.330883741378784,428.0
3.3360538482666016,423.0
3.35337495803833,421.0
3.3570497035980225,420.0
3.3613808155059814,421.0
3.3861238956451416,422.0
3.389719009399414,425.0
3.3948748111724854,427.0
3.4183828830718994,429.0
3.422286033630371,433.0
3.4269509315490723,436.0
3.4314208030700684,437.0
3.458390951156616,440.0
3.4620940685272217,442.0
3.4664807319641113,446.0
3.509657144546509,449.0
3.5131278038024902,453.0
3.516669988632202,455.0
3.5203089714050293,455.0
3.5238149166107178,455.0
3.528174877166748,453.0
3.545884847640991,452.0
3.5495197772979736,451.0
3.553910970687866,450.0
3.577648878097534,449.0
3.5817148685455322,451.0
3.5865538120269775,457.0
3.6112349033355713,469.0
3.615388870239258,492.0
3.619713068008423,525.0
3.624099016189575,571.0
3.646286725997925,625.0
3.650412082672119,682.0
3.6554059982299805,738.0
3.679886817932129,785.0
3.683976888656616,821.0
3.6888880729675293,842.0
3.711289882659912,848.0
3.71539568901062,837.0
3.7189948558807373,812.0
3.723020076751709,774.0
3.7274177074432373,727.0
3.7572977542877197,675.0
3.7608907222747803,622.0
3.7652390003204346,570.0
3.789824962615967,522.0
3.793375015258789,480.0
3.7969868183135986,444.0
3.801464080810547,414.0
3.8236138820648193,392.0
3.8272030353546143,375.0
3.8317067623138428,365.0
3.8561367988586426,361.0
3.859670877456665,363.0
3.8640499114990234,370.0
3.8886027336120605,380.0
3.892209768295288,395.0
3.8974039554595947,412.0
3.9211268424987793,431.0
3.9247028827667236,451.0
3.9285478591918945,471.0
3.933684825897217,489.0
3.9546618461608887,504.0
3.958376884460449,516.0
3.9627628326416016,523.0
3.9885828495025635,530.0
3.9920599460601807,527.0
3.995715856552124,523.0
4.000125885009766,514.0
4.047554969787598,505.0
4.05102801322937,492.0
4.05472993850708,481.0
4.0582897663116455,467.0
4.062651872634888,455.0
4.083356857299805,444.0
4.087109804153442,435.0
4.090709924697876,426.0
4.0951008796691895,420.0
4.117113828659058,416.0
4.120790958404541,414.0
4.125635862350464,412.0
4.149810791015625,412.0
4.15342378616333,414.0
4.157222747802734,416.0
4.161572694778442,417.0
4.183434963226318,422.0
4.187157869338989,425.0
4.191495895385742,429.0
4.215930938720703,433.0
4.2196128368377686,436.0
4.22404670715332,440.0
4.248394012451172,443.0
4.252037763595581,446.0
4.25650691986084,447.0
4.281760931015015,448.0
4.285301923751831,448.0
4.289716005325317,449.0
4.31344199180603,448.0
4.3174049854278564,449.0
4.321102142333984,449.0
4.325702905654907,449.0
4.355479001998901,451.0
4.3599560260772705,452.0
4.3636558055877686,460.0
4.367259740829468,474.0
4.371618986129761,495.0
4.393556833267212,531.0
4.397125720977783,579.0
4.40150785446167,636.0
4.42593789100647,697.0
4.429600954055786,756.0
4.43403697013855,808.0
4.45839786529541,846.0
4.462062120437622,868.0
4.4664928913116455,876.0
4.4911229610443115,867.0
4.494675874710083,842.0
4.4998779296875,805.0
4.523461818695068,758.0
4.527057886123657,706.0
4.530675888061523,652.0
4.535046815872192,596.0
4.557156801223755,546.0
4.560868740081787,500.0
4.565258026123047,463.0
4.5896687507629395,430.0
4.593272686004639,402.0
4.596922874450684,388.0
4.602126836776733,378.0
4.647505760192871,373.0
4.651098728179932,373.0
4.654849052429199,378.0
4.658566951751709,387.0
4.662182807922363,398.0
4.666531801223755,412.0
4.685431003570557,428.0
4.690269947052002,446.0
4.694643974304199,463.0
4.719632863998413,479.0
4.723639011383057,491.0
4.728551864624023,503.0
4.733026027679443,511.0
4.759635925292969,515.0
4.763298988342285,515.0
4.7677319049835205,512.0
4.793363809585571,505.0
4.797027826309204,497.0
4.800693988800049,488.0
4.805092811584473,479.0
4.8272199630737305,468.0
4.83086371421814,457.0
4.835253953933716,448.0
4.859665870666504,439.0
4.863303899765015,431.0
4.866927862167358,425.0
4.871313810348511,420.0
4.893614053726196,418.0
4.897178888320923,418.0
4.901515007019043,417.0
4.948539733886719,418.0
4.952182054519653,418.0
4.9558799266815186,419.0
4.959436893463135,420.0
4.963825941085815,422.0
4.984839916229248,423.0
4.9884727001190186,426.0
4.992225885391235,430.0
4.996664762496948,432.0
5.0183820724487305,435.0
5.022027015686035,438.0
5.025659799575806,440.0
5.0300679206848145,441.0
5.05213475227356,443.0
5.055819988250732,444.0
5.060154914855957,445.0
5.084669828414917,445.0
5.0882909297943115,445.0
5.092673063278198,445.0
5.1171650886535645,444.0
5.120869874954224,444.0
5.126031875610352,447.0
5.149772882461548,457.0
5.153404951095581,476.0
5.157810926437378,508.0
5.182113885879517,551.0
5.185642957687378,603.0
5.190011739730835,661.0
5.214779853820801,720.0
5.218661785125732,774.0
5.222424030303955,815.0
5.2271888256073,844.0
5.254648685455322,856.0
5.258321762084961,852.0
5.261945724487305,831.0
5.266267776489258,799.0
5.288437843322754,755.0
5.29250693321228,705.0
5.29620099067688,653.0
5.300587892532349,601.0
5.327124834060669,551.0
5.330826044082642,505.0
5.335166931152344,464.0
5.359630823135376,430.0
5.363282918930054,404.0
5.3676979541778564,385.0
5.392409801483154,372.0
5.395950794219971,363.0
5.400519847869873,360.0
5.428402900695801,361.0
5.432124853134155,366.0
5.435763835906982,377.0
5.439682960510254,390.0
5.443181991577148,406.0
5.4484217166900635,424.0
5.472154855728149,444.0
5.475893020629883,463.0
5.480446815490723,481.0
5.504812955856323,497.0
5.508346796035767,511.0
5.512755870819092,521.0
5.549458980560303,526.0
5.553267955780029,527.0
5.55691385269165,524.0
5.561321020126343,519.0
5.5841758251190186,507.0
5.587886095046997,496.0
5.592195749282837,482.0
5.596724987030029,469.0
5.622251987457275,456.0
5.625814914703369,444.0
5.629449844360352,433.0
5.633947849273682,424.0
5.656007766723633,416.0
5.659631729125977,411.0
5.664273977279663,408.0
5.688379764556885,406.0
5.6919097900390625,405.0
5.69557785987854,406.0
5.6999900341033936,408.0
5.724656820297241,410.0
5.728334903717041,415.0
5.7327117919921875,419.0
5.757191896438599,423.0
5.760857820510864,427.0
5.765214920043945,432.0
5.7896528244018555,435.0
5.7934088706970215,439.0
5.7971320152282715,440.0
5.801862955093384,442.0
5.84991192817688,442.0
5.853608846664429,443.0
5.8573408126831055,444.0
5.861010789871216,446.0
5.8645570278167725,446.0
5.868957996368408,447.0
5.887346982955933,448.0
5.890842914581299,452.0
5.895289897918701,460.0
5.919630765914917,475.0
5.923285961151123,499.0
5.926934003829956,534.0
5.931276082992554,580.0
5.953682899475098,636.0
5.957295894622803,695.0
5.962461948394775,752.0
5.986093997955322,800.0
5.989696025848389,835.0
5.994057893753052,855.0
6.018350839614868,857.0
6.021996974945068,843.0
6.026417970657349,815.0
6.0685858726501465,774.0
6.072291851043701,724.0
6.07608699798584,671.0
6.079735040664673,615.0
6.083319902420044,561.0
6.088546991348267,511.0
6.105917930603027,468.0
6.109612941741943,430.0
6.114375829696655,400.0
6.1474809646606445,376.0
6.150914907455444,359.0
6.154606103897095,350.0
6.158995866775513,345.0
6.183076858520508,348.0
6.186531066894531,355.0
6.190180778503418,368.0
6.194586753845215,384.0
6.217149972915649,403.0
6.220779895782471,425.0
6.225136756896973,447.0
6.2496960163116455,469.0
6.2533018589019775,490.0
6.257694959640503,508.0
6.282148838043213,521.0
6.285805940628052,532.0
6.289432048797607,537.0
6.293855905532837,537.0
6.315844774246216,533.0
6.319540023803711,525.0
6.323929786682129,515.0
6.348382949829102,503.0
6.352065086364746,489.0
6.3564369678497314,474.0
6.381005048751831,459.0
6.384684085845947,447.0
6.388563871383667,435.0
6.393050909042358,426.0
6.414724826812744,419.0
6.4187798500061035,415.0
6.4234209060668945,414.0
6.453406810760498,414.0
6.457050800323486,414.0
6.460665702819824,415.0
6.465035915374756,416.0
6.48736310005188,419.0
6.490760803222656,420.0
6.494422912597656,424.0
6.4987828731536865,427.0
6.521013975143433,431.0
6.5246148109436035,436.0
6.528942108154297,439.0
6.553356885910034,442.0
6.557038068771362,444.0
6.5614190101623535,445.0
6.589632034301758,447.0
6.593285799026489,448.0
6.596923828125,451.0
6.601345062255859,458.0
6.623373031616211,471.0
6.626967906951904,494.0
6.631300926208496,529.0
6.656041860580444,576.0
6.65963888168335,635.0
6.663990020751953,697.0
6.708639860153198,758.0
6.712291717529297,808.0
6.716165781021118,848.0
6.719790697097778,871.0
6.723315000534058,878.0
6.727843761444092,867.0
6.752157926559448,842.0
6.7557597160339355,803.0
6.7594099044799805,757.0
6.7638258934021,702.0
6.7860939502716064,645.0
6.789669752120972,589.0
6.794159889221191,536.0
6.818466901779175,488.0
6.822069883346558,447.0
6.8264241218566895,413.0
6.850867986679077,386.0
6.854562044143677,366.0
6.858969688415527,353.0
6.883462905883789,345.0
6.887172698974609,344.0
6.89116096496582,348.0
6.895481824874878,359.0
6.917137861251831,374.0
6.9207658767700195,393.0
6.924431800842285,414.0
6.929667711257935,435.0
6.950923919677734,459.0
6.954608917236328,480.0
6.9589948654174805,499.0
6.983504772186279,514.0
6.987075090408325,526.0
6.991725921630859,533.0
7.047810077667236,536.0
7.0510687828063965,534.0
7.0548059940338135,527.0
7.058521747589111,518.0
7.062111854553223,506.0
7.06654691696167,494.0
7.084625959396362,480.0
7.088314771652222,468.0
7.091904878616333,457.0
7.096315860748291,445.0
7.1183648109436035,435.0
7.1220948696136475,427.0
7.125783920288086,420.0
7.130266904830933,415.0
7.156061887741089,413.0
7.159579753875732,412.0
7.163996934890747,412.0
7.188375949859619,414.0
7.192018985748291,416.0
7.19573187828064,419.0
7.200143814086914,422.0
7.222452878952026,426.0
7.2260589599609375,430.0
7.230491876602173,433.0
7.254603862762451,436.0
7.258277893066406,440.0
7.262618780136108,445.0
7.287150859832764,449.0
7.29084587097168,451.0
7.295236825942993,453.0
7.3607728481292725,456.0
7.36433482170105,466.0
7.3683860301971436,484.0
7.371940851211548,513.0
7.375468969345093,556.0
7.379844903945923,609.0
7.383516788482666,672.0
7.3871259689331055,735.0
7.390726804733276,795.0
7.395131826400757,845.0
7.415905952453613,882.0
7.419578790664673,903.0
7.423922777175903,905.0
7.448409080505371,891.0
7.452040910720825,864.0
7.4564208984375,821.0
7.48085880279541,769.0
7.484649896621704,711.0
7.488982915878296,652.0
7.513509750366211,593.0
7.517171859741211,539.0
7.520948886871338,493.0
7.525325059890747,453.0
7.547375917434692,420.0
7.550987005233765,397.0
7.555039882659912,380.0
7.559363842010498,369.0
7.580880880355835,364.0
7.584501028060913,365.0
7.588873863220215,370.0
7.613571882247925,381.0
7.617599010467529,395.0
7.6231889724731445,412.0
7.651547908782959,431.0
7.654716968536377,451.0
7.657848834991455,470.0
7.663088798522949,488.0
7.686007022857666,504.0
7.689634084701538,516.0
7.6940648555755615,526.0
7.718411922454834,531.0
7.722233772277832,532.0
7.726954936981201,530.0
7.7321648597717285,524.0
7.759796857833862,514.0
7.763412952423096,504.0
7.7671959400177,493.0
7.771565914154053,480.0
7.79339599609375,467.0
7.797022819519043,455.0
7.802236795425415,444.0
7.825871706008911,433.0
7.829598903656006,425.0
7.833989858627319,418.0
7.858345985412598,413.0
7.862086772918701,409.0
7.866427898406982,408.0
7.890890836715698,408.0
7.895043134689331,408.0
7.899029970169067,408.0
7.9474639892578125,409.0
7.951164960861206,412.0
7.954815864562988,416.0
7.95849084854126,418.0
7.962036848068237,420.0
7.9664146900177,423.0
7.988606929779053,424.0
7.992167949676514,426.0
7.992360830307007,427.0
7.995896816253662,430.0
8.00026798248291,432.0
8.022083044052124,439.0
8.025775909423828,452.0
8.030261993408203,472.0
8.05476188659668,504.0
8.05833911895752,549.0
8.062745094299316,605.0
8.087124824523926,667.0
8.091202020645142,729.0
8.095631837844849,785.0
8.122282028198242,830.0
8.126648664474487,861.0
8.130985975265503,876.0
8.156045913696289,873.0
8.159678936004639,852.0
8.163429737091064,817.0
8.167804956436157,771.0
8.190422058105469,718.0
8.193433046340942,660.0
8.197102785110474,602.0
8.201504945755005,547.0
8.248292922973633,498.0
8.25182580947876,455.0
8.255361080169678,419.0
8.258962869644165,390.0
8.262513875961304,368.0
8.266889810562134,354.0
8.28587794303894,345.0
8.289606809616089,345.0
8.293970823287964,350.0
8.31834888458252,359.0
8.322113037109375,373.0
8.326467752456665,390.0
8.351094961166382,410.0
8.354667901992798,431.0
8.359076738357544,453.0
8.383438110351562,473.0
8.387146949768066,491.0
8.391005992889404,507.0
8.395355939865112,518.0
8.417237997055054,526.0
8.420744895935059,530.0
8.424393892288208,531.0
8.428753852844238,527.0
8.450915813446045,519.0
8.4544997215271,511.0
8.458894729614258,499.0
8.483844757080078,488.0
8.48739504814148,476.0
8.492612838745117,464.0
8.548664093017578,453.0
8.55226182937622,443.0
8.555912971496582,435.0
8.559656858444214,428.0
8.563442945480347,423.0
8.567039012908936,421.0
8.57139778137207,421.0
8.589615821838379,424.0
8.593315839767456,428.0
8.59771180152893,432.0
8.628007888793945,437.0
8.63159704208374,443.0
8.6317617893219,448.0
8.635210990905762,454.0
8.639605045318604,459.0
8.666017055511475,465.0
8.669625759124756,473.0
8.67398977279663,483.0
8.698566913604736,498.0
8.702105045318604,521.0
8.70645785331726,557.0
8.730978012084961,603.0
8.734526872634888,657.0
8.73820185661316,715.0
8.742574691772461,771.0
8.764610052108765,823.0
8.768229722976685,862.0
8.772617816925049,887.0
8.797131061553955,896.0
8.800756931304932,889.0
8.805149793624878,866.0
8.847275018692017,828.0
8.850950956344604,780.0
8.854869842529297,726.0
8.859022855758667,668.0
8.86256194114685,611.0
8.866907835006714,556.0
8.887118101119995,507.0
8.890836954116821,464.0
8.895153760910034,428.0
8.919803857803345,399.0
8.92328691482544,378.0
8.926904678344727,364.0
8.931277990341187,355.0
8.95341181755066,353.0
8.957124710083008,359.0
8.962309837341309,368.0
8.986073017120361,382.0
8.989589929580688,399.0
8.993959903717041,420.0
9.018467664718628,442.0
9.022094011306763,465.0
9.026488780975342,485.0
9.050885915756226,502.0
9.054502964019775,515.0
9.058169841766357,526.0
9.062602043151855,531.0
9.084609031677246,532.0
9.088268041610718,530.0
9.092628002166748,524.0
9.148722887039185,518.0
9.152361869812012,510.0
9.156106948852539,500.0
9.15984582901001,491.0
9.163472890853882,482.0
9.167036771774292,473.0
9.171489953994751,464.0
9.189607858657837,458.0
9.193318843841553,452.0
9.197636842727661,446.0
9.22467303276062,443.0
9.228240728378296,442.0
9.23193073272705,443.0
9.236273765563965,445.0
9.266700029373169,447.0
9.271188020706177,450.0
9.2747220993042,451.0
9.278233766555786,453.0
9.28339672088623,450.0
9.303331851959229,450.0
9.307005882263184,448.0
9.311370849609375,448.0
9.335846900939941,450.0
9.339536905288696,458.0
9.343914985656738,474.0
9.36835789680481,503.0
9.372288942337036,547.0
9.376786947250366,604.0
9.401022911071777,671.0
9.404772758483887,738.0
9.409137964248657,799.0
9.448637962341309,852.0
9.452307939529419,891.0
9.455880880355835,912.0
9.459460735321045,915.0
9.463819980621338,899.0
9.484718084335327,867.0
9.488322019577026,822.0
9.491929769515991,766.0
9.49625277519226,705.0
9.51841688156128,643.0
9.522012948989868,582.0
9.525661945343018,527.0
9.530026912689209,476.0
9.552119970321655,436.0
9.555823802947998,404.0
9.56023383140564,380.0
9.584598064422607,364.0
9.588295936584473,354.0
9.593519926071167,350.0
9.61713695526123,352.0
9.62082290649414,359.0
9.625258922576904,369.0
9.649654865264893,382.0
9.653308868408203,399.0
9.65778398513794,417.0
9.682105779647827,436.0
9.68576693534851,457.0
9.689381837844849,476.0
9.693824052810669,492.0
9.74832797050476,496.0
9.751827955245972,514.0
9.755382061004639,525.0
9.758980751037598,526.0
9.76254677772522,523.0
9.766095876693726,517.0
9.770964860916138,508.0
9.7883620262146,496.0
9.792351007461548,484.0
9.79723596572876,471.0
9.801723957061768,458.0
9.828349828720093,445.0
9.832035779953003,439.0
9.83644700050354,430.0
9.861046075820923,421.0
9.864625930786133,416.0
9.868969917297363,413.0
9.908750057220459,411.0
9.912254810333252,412.0
9.915934801101685,413.0
9.919710874557495,415.0
9.923239946365356,419.0
9.927613973617554,420.0
9.945884943008423,423.0
9.949542760848999,424.0
9.953894853591919,426.0
9.978351831436157,428.0
9.981994867324829,428.0
9.987382888793945,430.0
